0	0
1	0
2	0
3	0
4	0
5	0
6	0
7	0
8	0
9	0
10	0
11	0
12	0
13	1
14	3010
15	147475
16	107747
17	70506
18	44952
19	28308
20	18730
21	12990
22	9812
23	8319
24	7269
25	6805
26	6703
27	6875
28	6948
29	7024
30	7178
31	6973
32	6893
33	6789
34	6346
35	6149
36	5991
37	5698
38	5377
39	5331
40	5168
41	5038
42	4947
43	4869
44	4878
45	4673
46	4544
47	4610
48	4448
49	4449
50	4461
51	4400
52	4240
53	4333
54	4337
55	4265
56	3949
57	4142
58	4057
59	4060
60	4038
61	3909
62	4000
63	3799
64	3894
65	3976
66	3816
67	3928
68	3806
69	3854
70	3820
71	3655
72	3657
73	3695
74	3686
75	3476
76	3480
77	3428
78	3462
79	3250
80	3245
81	3114
82	3210
83	3050
84	3010
85	2982
86	2787
87	2810
88	2820
89	2805
90	2728
91	2657
92	2689
93	2695
94	2615
95	2605
96	2580
97	2496
98	2511
99	2527
100	2387
101	2475
102	2458
103	2457
104	2367
105	2449
106	2298
107	2314
108	2276
109	2254
110	2239
111	2139
112	2220
113	2114
114	2123
115	2058
116	2030
117	1948
118	1887
119	1936
120	1909
121	1813
122	1764
123	1717
124	1756
125	1729
126	1661
127	1740
128	1710
129	1729
130	1656
131	1646
132	1694
133	1701
134	1608
135	1759
136	1659
137	1730
138	1690
139	1662
140	1650
141	1667
142	1702
143	1750
144	1742
145	1740
146	1699
147	1739
148	1748
149	1745
150	1786
151	1748
152	1761
153	1848
154	1901
155	1824
156	1829
157	1867
158	1822
159	1783
160	1838
161	1840
162	1773
163	1723
164	1720
165	1700
166	1625
167	1687
168	1654
169	1636
170	1608
171	1616
172	1551
173	1564
174	1589
175	1533
176	1549
177	1542
178	1651
179	1547
180	1569
181	1539
182	1541
183	1487
184	1537
185	1412
186	1409
187	1527
188	1367
189	1338
190	1326
191	1306
192	1279
193	1201
194	1187
195	1174
196	1213
197	1138
198	1101
199	1110
200	1049
201	1118
202	1007
203	940
204	1071
205	992
206	964
207	936
208	921
209	982
210	952
211	966
212	914
213	923
214	924
215	919
216	988
217	858
218	912
219	917
220	900
221	891
222	848
223	853
224	835
225	898
226	857
227	890
228	887
229	883
230	910
231	870
232	816
233	855
234	791
235	814
236	795
237	873
238	828
239	800
240	828
241	771
242	771
243	812
244	755
245	787
246	763
247	756
248	766
249	766
250	793
251	711
252	736
253	714
254	748
255	799
256	684
257	757
258	737
259	729
260	731
261	749
262	768
263	768
264	745
265	730
266	741
267	699
268	686
269	770
270	703
271	776
272	785
273	765
274	761
275	752
276	729
277	710
278	722
279	710
280	748
281	809
282	723
283	711
284	735
285	716
286	762
287	738
288	694
289	670
290	727
291	690
292	683
293	674
294	693
295	660
296	602
297	636
298	586
299	654
300	560
301	586
302	610
303	600
304	554
305	575
306	580
307	554
308	575
309	515
310	552
311	571
312	531
313	517
314	518
315	521
316	546
317	519
318	484
319	491
320	469
321	504
322	511
323	513
324	542
325	520
326	511
327	487
328	445
329	489
330	471
331	491
332	493
333	520
334	500
335	473
336	449
337	502
338	515
339	489
340	485
341	487
342	450
343	442
344	472
345	429
346	447
347	448
348	490
349	478
350	421
351	436
352	419
353	421
354	452
355	391
356	435
357	404
358	397
359	383
360	382
361	408
362	408
363	379
364	379
365	362
366	385
367	350
368	364
369	352
370	344
371	354
372	354
373	342
374	322
375	367
376	333
377	322
378	325
379	348
380	301
381	318
382	315
383	318
384	346
385	301
386	271
387	299
388	293
389	300
390	296
391	290
392	294
393	296
394	313
395	305
396	348
397	297
398	326
399	321
400	361
401	335
402	367
403	353
404	398
405	384
406	405
407	419
408	453
409	421
410	509
411	503
412	569
413	587
414	654
415	639
416	673
417	708
418	790
419	811
420	847
421	896
422	956
423	981
424	999
425	1130
426	1115
427	1135
428	1241
429	1299
430	1317
431	1305
432	1304
433	1476
434	1468
435	1443
436	1470
437	1471
438	1430
439	1487
440	1596
441	1502
442	1465
443	1462
444	1376
445	1424
446	1463
447	1338
448	1333
449	1260
450	1291
451	1126
452	1144
453	1087
454	1068
455	969
456	977
457	901
458	803
459	867
460	799
461	688
462	673
463	631
464	575
465	538
466	479
467	485
468	433
469	434
470	405
471	351
472	332
473	357
474	326
475	341
476	296
477	281
478	279
479	262
480	248
481	247
482	249
483	215
484	223
485	227
486	232
487	239
488	243
489	200
490	201
491	213
492	227
493	218
494	197
495	218
496	198
497	203
498	201
499	202
500	211
501	211
502	203
503	212
504	188
505	216
506	197
507	210
508	174
509	192
510	194
511	188
512	172
513	189
514	177
515	171
516	180
517	182
518	176
519	158
520	189
521	176
522	171
523	166
524	177
525	165
526	167
527	173
528	150
529	187
530	177
531	160
532	160
533	168
534	177
535	168
536	139
537	162
538	164
539	156
540	166
541	151
542	159
543	136
544	141
545	132
546	128
547	135
548	142
549	143
550	137
551	127
552	129
553	141
554	124
555	154
556	109
557	141
558	114
559	133
560	117
561	100
562	148
563	120
564	96
565	102
566	122
567	109
568	128
569	104
570	111
571	103
572	101
573	108
574	96
575	104
576	91
577	101
578	104
579	104
580	94
581	90
582	110
583	89
584	76
585	78
586	100
587	93
588	90
589	95
590	90
591	91
592	89
593	94
594	92
595	113
596	72
597	95
598	89
599	91
600	102
601	99
602	84
603	95
604	107
605	89
606	85
607	80
608	108
609	93
610	100
611	96
612	88
613	83
614	107
615	79
616	123
617	90
618	95
619	105
620	82
621	106
622	108
623	90
624	110
625	124
626	104
627	114
628	98
629	106
630	98
631	108
632	118
633	96
634	104
635	119
636	110
637	109
638	87
639	101
640	100
641	95
642	104
643	100
644	104
645	120
646	106
647	95
648	112
649	105
650	99
651	98
652	95
653	90
654	106
655	91
656	98
657	96
658	116
659	139
660	91
661	92
662	93
663	96
664	81
665	91
666	93
667	87
668	97
669	92
670	92
671	104
672	83
673	84
674	87
675	79
676	82
677	95
678	82
679	71
680	77
681	82
682	79
683	77
684	86
685	83
686	85
687	65
688	75
689	74
690	75
691	71
692	66
693	74
694	67
695	69
696	67
697	73
698	75
699	72
700	74
701	59
702	63
703	78
704	64
705	64
706	62
707	68
708	75
709	68
710	72
711	59
712	53
713	59
714	67
715	64
716	55
717	50
718	75
719	69
720	64
721	63
722	67
723	56
724	64
725	69
726	64
727	57
728	55
729	57
730	62
731	60
732	67
733	62
734	69
735	72
736	59
737	49
738	52
739	73
740	67
741	69
742	67
743	57
744	62
745	61
746	60
747	78
748	79
749	66
750	75
751	64
752	69
753	81
754	82
755	84
756	88
757	84
758	92
759	107
760	89
761	95
762	103
763	109
764	95
765	107
766	112
767	102
768	112
769	95
770	117
771	103
772	106
773	129
774	113
775	139
776	136
777	134
778	118
779	131
780	102
781	143
782	130
783	128
784	124
785	132
786	125
787	134
788	144
789	138
790	107
791	147
792	144
793	143
794	117
795	116
796	98
797	115
798	124
799	105
800	121
801	102
802	108
803	87
804	105
805	105
806	94
807	89
808	107
809	99
810	88
811	77
812	98
813	65
814	72
815	85
816	62
817	69
818	64
819	70
820	62
821	60
822	43
823	42
824	40
825	51
826	51
827	59
828	51
829	45
830	35
831	40
832	49
833	44
834	44
835	38
836	49
837	37
838	32
839	39
840	33
841	28
842	36
843	28
844	31
845	21
846	33
847	26
848	27
849	33
850	28
851	32
852	33
853	32
854	26
855	35
856	42
857	34
858	26
859	30
860	21
861	24
862	34
863	32
864	34
865	24
866	32
867	30
868	22
869	26
870	25
871	29
872	27
873	38
874	30
875	24
876	32
877	24
878	25
879	24
880	29
881	21
882	22
883	22
884	31
885	37
886	19
887	24
888	25
889	20
890	32
891	31
892	25
893	31
894	25
895	18
896	26
897	22
898	20
899	27
900	26
901	20
902	27
903	33
904	21
905	25
906	25
907	30
908	28
909	19
910	27
911	25
912	24
913	19
914	20
915	26
916	15
917	18
918	18
919	24
920	31
921	24
922	29
923	25
924	22
925	33
926	24
927	22
928	30
929	17
930	30
931	16
932	19
933	19
934	24
935	31
936	22
937	26
938	25
939	30
940	22
941	24
942	23
943	21
944	28
945	26
946	29
947	25
948	26
949	23
950	20
951	29
952	28
953	16
954	20
955	22
956	26
957	19
958	21
959	26
960	26
961	24
962	25
963	26
964	19
965	21
966	27
967	21
968	20
969	18
970	27
971	18
972	27
973	25
974	21
975	32
976	27
977	18
978	21
979	19
980	16
981	17
982	17
983	25
984	23
985	19
986	22
987	20
988	23
989	23
990	22
991	19
992	16
993	21
994	19
995	20
996	29
997	20
998	27
999	21
1000	19
1001	18
1002	24
1003	17
1004	22
1005	24
1006	18
1007	23
1008	0
1009	0
1010	0
1011	0
1012	0
1013	0
1014	0
1015	0
1016	0
1017	0
1018	0
1019	0
1020	0
1021	0
1022	0
1023	0
