0	0
1	0
2	0
3	0
4	0
5	0
6	0
7	0
8	0
9	0
10	0
11	9
12	121
13	961
14	746
15	498
16	396
17	394
18	376
19	398
20	364
21	370
22	376
23	412
24	400
25	384
26	417
27	415
28	404
29	377
30	396
31	405
32	391
33	394
34	378
35	401
36	405
37	378
38	400
39	421
40	395
41	433
42	401
43	370
44	413
45	426
46	383
47	393
48	403
49	406
50	404
51	369
52	407
53	376
54	399
55	459
56	415
57	400
58	382
59	383
60	395
61	407
62	406
63	424
64	371
65	396
66	397
67	421
68	424
69	426
70	393
71	409
72	376
73	394
74	418
75	360
76	376
77	412
78	391
79	377
80	399
81	437
82	373
83	364
84	391
85	383
86	396
87	385
88	381
89	382
90	407
91	401
92	396
93	396
94	352
95	406
96	389
97	377
98	409
99	377
100	430
101	416
102	392
103	400
104	363
105	401
106	376
107	399
108	426
109	407
110	452
111	414
112	402
113	426
114	419
115	414
116	413
117	368
118	434
119	385
120	379
121	407
122	421
123	432
124	394
125	406
126	433
127	392
128	369
129	396
130	411
131	361
132	389
133	413
134	434
135	390
136	413
137	417
138	404
139	424
140	418
141	421
142	409
143	428
144	418
145	420
146	478
147	447
148	504
149	470
150	423
151	483
152	474
153	479
154	529
155	484
156	472
157	478
158	538
159	456
160	516
161	493
162	486
163	472
164	504
165	485
166	486
167	471
168	496
169	500
170	463
171	499
172	460
173	487
174	471
175	460
176	490
177	530
178	485
179	459
180	500
181	463
182	456
183	472
184	431
185	442
186	458
187	465
188	453
189	430
190	450
191	491
192	461
193	446
194	458
195	466
196	462
197	443
198	449
199	446
200	442
201	465
202	495
203	443
204	434
205	474
206	453
207	473
208	427
209	476
210	441
211	456
212	456
213	453
214	434
215	429
216	447
217	471
218	437
219	447
220	445
221	456
222	451
223	431
224	422
225	415
226	457
227	466
228	433
229	387
230	404
231	402
232	441
233	429
234	461
235	450
236	418
237	437
238	460
239	439
240	420
241	410
242	437
243	421
244	420
245	428
246	430
247	405
248	421
249	387
250	442
251	441
252	432
253	449
254	419
255	408
256	432
257	430
258	396
259	413
260	448
261	430
262	419
263	426
264	413
265	399
266	391
267	445
268	387
269	396
270	392
271	417
272	399
273	378
274	420
275	445
276	398
277	397
278	401
279	420
280	411
281	387
282	381
283	385
284	450
285	384
286	387
287	378
288	370
289	423
290	379
291	413
292	399
293	409
294	368
295	432
296	385
297	370
298	429
299	370
300	382
301	359
302	395
303	358
304	403
305	384
306	382
307	388
308	406
309	385
310	417
311	404
312	414
313	368
314	403
315	391
316	386
317	395
318	410
319	385
320	406
321	407
322	338
323	405
324	364
325	378
326	399
327	388
328	355
329	409
330	402
331	375
332	379
333	393
334	394
335	364
336	367
337	380
338	371
339	382
340	396
341	409
342	440
343	404
344	397
345	397
346	361
347	375
348	376
349	393
350	392
351	400
352	394
353	425
354	404
355	407
356	401
357	383
358	415
359	383
360	434
361	401
362	412
363	367
364	420
365	381
366	394
367	372
368	394
369	456
370	332
371	364
372	380
373	364
374	385
375	398
376	427
377	363
378	378
379	388
380	384
381	439
382	374
383	364
384	404
385	363
386	408
387	373
388	402
389	389
390	432
391	404
392	399
393	387
394	363
395	389
396	376
397	377
398	404
399	400
400	366
401	375
402	376
403	427
404	439
405	387
406	378
407	411
408	374
409	372
410	389
411	383
412	396
413	380
414	415
415	386
416	339
417	389
418	407
419	372
420	389
421	383
422	369
423	363
424	432
425	416
426	370
427	409
428	378
429	378
430	375
431	394
432	411
433	400
434	386
435	410
436	399
437	398
438	418
439	390
440	421
441	410
442	412
443	406
444	399
445	414
446	397
447	369
448	393
449	358
450	414
451	405
452	404
453	392
454	393
455	415
456	393
457	379
458	419
459	366
460	372
461	418
462	383
463	419
464	395
465	401
466	449
467	397
468	406
469	366
470	392
471	420
472	387
473	374
474	431
475	372
476	404
477	433
478	442
479	402
480	389
481	382
482	397
483	382
484	371
485	394
486	395
487	407
488	399
489	406
490	440
491	396
492	385
493	381
494	406
495	395
496	400
497	421
498	401
499	398
500	431
501	413
502	407
503	395
504	425
505	425
506	384
507	404
508	437
509	423
510	423
511	419
512	418
513	419
514	440
515	398
516	396
517	379
518	394
519	399
520	420
521	415
522	400
523	416
524	378
525	435
526	420
527	452
528	440
529	415
530	410
531	435
532	399
533	445
534	419
535	427
536	455
537	433
538	440
539	426
540	385
541	451
542	458
543	435
544	463
545	454
546	473
547	414
548	439
549	424
550	460
551	436
552	458
553	481
554	471
555	452
556	475
557	434
558	427
559	469
560	423
561	457
562	437
563	454
564	471
565	478
566	477
567	437
568	445
569	458
570	434
571	443
572	446
573	444
574	426
575	456
576	444
577	477
578	438
579	453
580	422
581	460
582	450
583	439
584	427
585	453
586	442
587	459
588	410
589	445
590	440
591	448
592	429
593	465
594	431
595	457
596	465
597	503
598	498
599	448
600	459
601	433
602	447
603	437
604	440
605	463
606	508
607	429
608	454
609	451
610	496
611	419
612	441
613	490
614	475
615	451
616	464
617	443
618	449
619	452
620	422
621	413
622	434
623	461
624	420
625	427
626	419
627	466
628	455
629	441
630	471
631	442
632	397
633	413
634	361
635	423
636	389
637	386
638	363
639	379
640	382
641	402
642	398
643	399
644	329
645	342
646	370
647	351
648	327
649	353
650	344
651	318
652	337
653	328
654	360
655	340
656	335
657	297
658	328
659	311
660	330
661	325
662	295
663	319
664	315
665	285
666	292
667	306
668	283
669	290
670	282
671	275
672	286
673	298
674	284
675	271
676	282
677	280
678	312
679	311
680	297
681	277
682	300
683	290
684	280
685	298
686	261
687	245
688	257
689	282
690	289
691	272
692	277
693	267
694	268
695	268
696	297
697	280
698	292
699	299
700	245
701	275
702	285
703	265
704	283
705	270
706	257
707	268
708	258
709	285
710	250
711	261
712	279
713	275
714	237
715	254
716	248
717	262
718	262
719	247
720	248
721	242
722	252
723	224
724	252
725	236
726	247
727	263
728	247
729	257
730	271
731	262
732	234
733	260
734	274
735	271
736	268
737	285
738	282
739	249
740	298
741	287
742	309
743	362
744	366
745	408
746	416
747	452
748	494
749	587
750	559
751	586
752	660
753	679
754	708
755	756
756	780
757	891
758	930
759	980
760	1048
761	1192
762	1248
763	1273
764	1350
765	1379
766	1486
767	1474
768	1573
769	1572
770	1713
771	1782
772	1739
773	1852
774	1782
775	1864
776	1788
777	1886
778	1940
779	1844
780	1728
781	1745
782	1770
783	1769
784	1667
785	1624
786	1642
787	1495
788	1462
789	1391
790	1372
791	1337
792	1214
793	1132
794	1120
795	978
796	1097
797	897
798	906
799	817
800	789
801	657
802	632
803	629
804	562
805	457
806	421
807	419
808	379
809	306
810	299
811	251
812	236
813	236
814	208
815	174
816	172
817	187
818	148
819	143
820	122
821	121
822	110
823	107
824	111
825	80
826	82
827	95
828	92
829	84
830	92
831	94
832	94
833	87
834	95
835	123
836	122
837	127
838	124
839	130
840	145
841	160
842	165
843	181
844	198
845	230
846	260
847	254
848	279
849	296
850	338
851	378
852	413
853	462
854	487
855	502
856	521
857	643
858	614
859	708
860	693
861	817
862	794
863	897
864	948
865	1032
866	1071
867	1108
868	1083
869	1168
870	1169
871	1276
872	1287
873	1271
874	1392
875	1347
876	1396
877	1434
878	1420
879	1504
880	1526
881	1429
882	1464
883	1533
884	1505
885	1473
886	1398
887	1371
888	1422
889	1405
890	1346
891	1269
892	1191
893	1223
894	1160
895	1091
896	1079
897	1022
898	963
899	973
900	829
901	845
902	725
903	689
904	686
905	644
906	581
907	574
908	544
909	468
910	446
911	424
912	368
913	340
914	298
915	287
916	277
917	266
918	211
919	212
920	198
921	177
922	189
923	139
924	144
925	113
926	137
927	119
928	125
929	109
930	107
931	90
932	93
933	78
934	91
935	62
936	82
937	83
938	54
939	73
940	66
941	65
942	80
943	72
944	72
945	73
946	63
947	67
948	76
949	69
950	54
951	60
952	73
953	43
954	51
955	43
956	69
957	58
958	72
959	63
960	60
961	71
962	67
963	59
964	63
965	56
966	60
967	66
968	51
969	60
970	59
971	46
972	58
973	69
974	63
975	64
976	65
977	68
978	64
979	72
980	61
981	52
982	50
983	79
984	75
985	56
986	61
987	64
988	63
989	59
990	62
991	76
992	67
993	63
994	54
995	63
996	64
997	56
998	50
999	55
1000	64
1001	53
1002	50
1003	57
1004	49
1005	54
1006	67
1007	68
1008	59
1009	58
1010	46
1011	54
1012	63
1013	56
1014	64
1015	55
1016	45
1017	59
1018	52
1019	36
1020	61
1021	51
1022	54
1023	44
1024	50
1025	55
1026	44
1027	61
1028	52
1029	59
1030	55
1031	45
1032	55
1033	58
1034	49
1035	53
1036	65
1037	55
1038	45
1039	61
1040	55
1041	49
1042	55
1043	53
1044	53
1045	58
1046	58
1047	62
1048	53
1049	60
1050	61
1051	68
1052	50
1053	71
1054	58
1055	46
1056	61
1057	40
1058	64
1059	56
1060	52
1061	60
1062	52
1063	60
1064	63
1065	56
1066	47
1067	41
1068	43
1069	46
1070	38
1071	58
1072	42
1073	51
1074	43
1075	44
1076	48
1077	45
1078	48
1079	49
1080	54
1081	46
1082	56
1083	46
1084	50
1085	39
1086	41
1087	47
1088	55
1089	52
1090	45
1091	39
1092	49
1093	32
1094	48
1095	57
1096	36
1097	43
1098	51
1099	50
1100	50
1101	39
1102	37
1103	52
1104	41
1105	50
1106	52
1107	48
1108	43
1109	55
1110	47
1111	52
1112	43
1113	46
1114	39
1115	36
1116	38
1117	38
1118	58
1119	53
1120	40
1121	41
1122	45
1123	62
1124	38
1125	51
1126	39
1127	29
1128	40
1129	40
1130	36
1131	49
1132	47
1133	42
1134	37
1135	34
1136	45
1137	34
1138	44
1139	50
1140	45
1141	42
1142	42
1143	34
1144	55
1145	38
1146	32
1147	53
1148	37
1149	54
1150	47
1151	45
1152	42
1153	40
1154	48
1155	29
1156	42
1157	37
1158	48
1159	42
1160	40
1161	47
1162	46
1163	44
1164	43
1165	47
1166	45
1167	50
1168	39
1169	38
1170	45
1171	37
1172	37
1173	46
1174	41
1175	37
1176	36
1177	42
1178	37
1179	38
1180	35
1181	37
1182	32
1183	54
1184	40
1185	43
1186	42
1187	35
1188	38
1189	39
1190	39
1191	37
1192	32
1193	39
1194	53
1195	34
1196	38
1197	36
1198	41
1199	42
1200	34
1201	32
1202	42
1203	36
1204	40
1205	31
1206	40
1207	29
1208	41
1209	33
1210	42
1211	32
1212	36
1213	39
1214	36
1215	37
1216	35
1217	26
1218	29
1219	33
1220	45
1221	36
1222	35
1223	45
1224	45
1225	36
1226	41
1227	31
1228	53
1229	36
1230	34
1231	32
1232	43
1233	32
1234	30
1235	46
1236	31
1237	35
1238	39
1239	31
1240	24
1241	50
1242	26
1243	45
1244	33
1245	25
1246	39
1247	48
1248	36
1249	31
1250	41
1251	26
1252	35
1253	32
1254	34
1255	38
1256	29
1257	35
1258	42
1259	48
1260	27
1261	27
1262	33
1263	35
1264	32
1265	32
1266	29
1267	34
1268	34
1269	40
1270	39
1271	38
1272	39
1273	39
1274	26
1275	27
1276	38
1277	31
1278	38
1279	39
1280	39
1281	36
1282	41
1283	35
1284	32
1285	20
1286	35
1287	42
1288	39
1289	40
1290	25
1291	26
1292	30
1293	33
1294	27
1295	27
1296	27
1297	32
1298	24
1299	31
1300	37
1301	36
1302	36
1303	35
1304	26
1305	33
1306	36
1307	25
1308	32
1309	30
1310	34
1311	33
1312	31
1313	34
1314	29
1315	29
1316	33
1317	32
1318	36
1319	31
1320	29
1321	40
1322	31
1323	25
1324	36
1325	34
1326	32
1327	27
1328	38
1329	34
1330	26
1331	39
1332	32
1333	30
1334	38
1335	35
1336	29
1337	34
1338	36
1339	32
1340	32
1341	31
1342	37
1343	28
1344	35
1345	31
1346	32
1347	34
1348	36
1349	27
1350	30
1351	33
1352	32
1353	31
1354	33
1355	38
1356	30
1357	28
1358	30
1359	23
1360	36
1361	32
1362	35
1363	26
1364	23
1365	27
1366	30
1367	29
1368	30
1369	33
1370	38
1371	33
1372	24
1373	28
1374	31
1375	24
1376	30
1377	24
1378	31
1379	29
1380	31
1381	18
1382	39
1383	28
1384	28
1385	30
1386	28
1387	35
1388	27
1389	32
1390	31
1391	31
1392	22
1393	36
1394	29
1395	25
1396	27
1397	21
1398	23
1399	43
1400	34
1401	35
1402	28
1403	24
1404	30
1405	25
1406	30
1407	27
1408	21
1409	26
1410	31
1411	31
1412	29
1413	23
1414	33
1415	32
1416	32
1417	37
1418	25
1419	20
1420	35
1421	33
1422	30
1423	33
1424	31
1425	26
1426	27
1427	39
1428	33
1429	27
1430	16
1431	23
1432	29
1433	24
1434	40
1435	31
1436	33
1437	29
1438	31
1439	21
1440	24
1441	28
1442	27
1443	26
1444	40
1445	35
1446	32
1447	20
1448	37
1449	40
1450	37
1451	28
1452	18
1453	32
1454	31
1455	33
1456	24
1457	28
1458	31
1459	25
1460	35
1461	33
1462	46
1463	28
1464	27
1465	23
1466	26
1467	23
1468	24
1469	32
1470	40
1471	33
1472	22
1473	21
1474	33
1475	34
1476	33
1477	35
1478	23
1479	30
1480	37
1481	30
1482	27
1483	28
1484	30
1485	42
1486	30
1487	23
1488	30
1489	28
1490	28
1491	35
1492	27
1493	38
1494	20
1495	30
1496	34
1497	29
1498	25
1499	22
1500	28
1501	26
1502	32
1503	22
1504	25
1505	23
1506	31
1507	28
1508	28
1509	20
1510	25
1511	32
1512	21
1513	32
1514	16
1515	31
1516	27
1517	16
1518	28
1519	28
1520	26
1521	17
1522	18
1523	25
1524	16
1525	19
1526	18
1527	17
1528	20
1529	18
1530	17
1531	20
1532	22
1533	21
1534	15
1535	16
1536	16
1537	15
1538	24
1539	15
1540	20
1541	17
1542	18
1543	12
1544	12
1545	9
1546	13
1547	13
1548	9
1549	14
1550	13
1551	10
1552	12
1553	13
1554	14
1555	7
1556	8
1557	11
1558	14
1559	7
1560	10
1561	9
1562	4
1563	13
1564	7
1565	8
1566	13
1567	14
1568	7
1569	14
1570	6
1571	6
1572	7
1573	14
1574	11
1575	11
1576	5
1577	9
1578	8
1579	6
1580	8
1581	13
1582	10
1583	7
1584	8
1585	7
1586	3
1587	8
1588	9
1589	4
1590	6
1591	9
1592	10
1593	2
1594	6
1595	7
1596	7
1597	7
1598	3
1599	10
1600	9
1601	6
1602	13
1603	8
1604	7
1605	10
1606	5
1607	11
1608	15
1609	7
1610	12
1611	10
1612	10
1613	19
1614	8
1615	12
1616	11
1617	10
1618	13
1619	11
1620	16
1621	10
1622	12
1623	19
1624	11
1625	17
1626	12
1627	16
1628	27
1629	21
1630	20
1631	20
1632	25
1633	37
1634	21
1635	28
1636	37
1637	31
1638	37
1639	36
1640	35
1641	33
1642	47
1643	44
1644	52
1645	48
1646	31
1647	37
1648	41
1649	39
1650	43
1651	53
1652	51
1653	42
1654	45
1655	59
1656	74
1657	68
1658	56
1659	57
1660	72
1661	69
1662	70
1663	59
1664	63
1665	59
1666	66
1667	62
1668	76
1669	70
1670	62
1671	74
1672	66
1673	70
1674	63
1675	80
1676	58
1677	68
1678	64
1679	71
1680	60
1681	45
1682	61
1683	54
1684	49
1685	49
1686	47
1687	51
1688	37
1689	51
1690	44
1691	42
1692	45
1693	50
1694	37
1695	41
1696	38
1697	35
1698	34
1699	33
1700	26
1701	24
1702	25
1703	21
1704	19
1705	24
1706	25
1707	14
1708	19
1709	12
1710	13
1711	21
1712	10
1713	14
1714	9
1715	13
1716	17
1717	12
1718	6
1719	11
1720	8
1721	14
1722	13
1723	13
1724	7
1725	9
1726	2
1727	12
1728	5
1729	2
1730	6
1731	9
1732	3
1733	4
1734	9
1735	5
1736	3
1737	5
1738	5
1739	3
1740	2
1741	2
1742	2
1743	5
1744	4
1745	3
1746	5
1747	3
1748	1
1749	3
1750	3
1751	4
1752	3
1753	3
1754	1
1755	4
1756	5
1757	2
1758	3
1759	5
1760	3
1761	8
1762	3
1763	3
1764	2
1765	4
1766	5
1767	1
1768	2
1769	3
1770	0
1771	4
1772	3
1773	8
1774	2
1775	2
1776	3
1777	2
1778	3
1779	4
1780	3
1781	4
1782	3
1783	1
1784	0
1785	4
1786	2
1787	0
1788	1
1789	2
1790	2
1791	3
1792	3
1793	2
1794	3
1795	1
1796	1
1797	3
1798	1
1799	2
1800	1
1801	1
1802	1
1803	1
1804	1
1805	3
1806	1
1807	0
1808	3
1809	3
1810	2
1811	2
1812	2
1813	3
1814	4
1815	0
1816	2
1817	0
1818	2
1819	2
1820	3
1821	1
1822	1
1823	2
1824	1
1825	1
1826	1
1827	1
1828	4
1829	2
1830	0
1831	3
1832	6
1833	2
1834	0
1835	2
1836	0
1837	1
1838	0
1839	1
1840	0
1841	2
1842	1
1843	5
1844	0
1845	3
1846	1
1847	2
1848	1
1849	0
1850	3
1851	0
1852	1
1853	2
1854	2
1855	5
1856	5
1857	0
1858	2
1859	0
1860	0
1861	3
1862	1
1863	0
1864	0
1865	0
1866	5
1867	4
1868	2
1869	3
1870	2
1871	1
1872	0
1873	0
1874	1
1875	0
1876	1
1877	0
1878	0
1879	3
1880	1
1881	2
1882	4
1883	2
1884	0
1885	2
1886	0
1887	1
1888	0
1889	1
1890	2
1891	1
1892	2
1893	0
1894	0
1895	1
1896	1
1897	4
1898	0
1899	5
1900	2
1901	2
1902	4
1903	1
1904	0
1905	1
1906	0
1907	6
1908	3
1909	5
1910	2
1911	1
1912	1
1913	1
1914	1
1915	0
1916	0
1917	0
1918	2
1919	0
1920	1
1921	0
1922	2
1923	1
1924	0
1925	1
1926	0
1927	1
1928	0
1929	1
1930	1
1931	3
1932	2
1933	0
1934	3
1935	3
1936	1
1937	0
1938	3
1939	1
1940	2
1941	4
1942	2
1943	3
1944	0
1945	1
1946	1
1947	0
1948	3
1949	3
1950	1
1951	0
1952	2
1953	2
1954	1
1955	2
1956	2
1957	1
1958	0
1959	1
1960	1
1961	1
1962	0
1963	0
1964	1
1965	2
1966	0
1967	4
1968	0
1969	0
1970	1
1971	2
1972	1
1973	2
1974	2
1975	0
1976	0
1977	1
1978	1
1979	2
1980	1
1981	1
1982	0
1983	1
1984	0
1985	0
1986	0
1987	0
1988	3
1989	0
1990	1
1991	0
1992	2
1993	2
1994	3
1995	1
1996	1
1997	1
1998	2
1999	3
2000	1
2001	0
2002	0
2003	3
2004	4
2005	1
2006	2
2007	1
2008	2
2009	0
2010	0
2011	1
2012	0
2013	2
2014	0
2015	1
2016	0
2017	0
2018	0
2019	0
2020	0
2021	0
2022	0
2023	0
2024	0
2025	0
2026	0
2027	0
2028	0
2029	0
2030	0
2031	0
2032	0
2033	0
2034	0
2035	0
2036	0
2037	0
2038	0
2039	0
2040	0
2041	0
2042	0
2043	0
2044	0
2045	0
2046	0
2047	0
