0	0
1	0
2	0
3	0
4	0
5	0
6	0
7	0
8	0
9	0
10	2
11	14
12	195
13	978
14	789
15	437
16	450
17	422
18	453
19	455
20	422
21	442
22	443
23	426
24	426
25	442
26	448
27	418
28	405
29	442
30	444
31	449
32	430
33	476
34	436
35	448
36	428
37	438
38	456
39	447
40	440
41	417
42	423
43	457
44	472
45	407
46	406
47	425
48	422
49	425
50	475
51	451
52	419
53	463
54	469
55	410
56	429
57	410
58	432
59	411
60	416
61	425
62	443
63	470
64	400
65	447
66	420
67	451
68	402
69	449
70	426
71	402
72	450
73	444
74	401
75	426
76	389
77	408
78	410
79	447
80	446
81	376
82	420
83	445
84	405
85	417
86	438
87	447
88	441
89	418
90	468
91	419
92	422
93	431
94	440
95	438
96	420
97	428
98	435
99	475
100	462
101	406
102	427
103	437
104	408
105	420
106	472
107	454
108	423
109	410
110	455
111	439
112	448
113	420
114	469
115	460
116	466
117	456
118	430
119	429
120	455
121	432
122	438
123	422
124	400
125	414
126	426
127	453
128	437
129	444
130	442
131	438
132	438
133	458
134	411
135	404
136	451
137	474
138	504
139	458
140	465
141	456
142	459
143	493
144	486
145	469
146	518
147	491
148	526
149	502
150	550
151	597
152	573
153	558
154	581
155	571
156	619
157	551
158	585
159	609
160	610
161	546
162	576
163	571
164	566
165	585
166	568
167	573
168	567
169	570
170	547
171	546
172	569
173	549
174	541
175	553
176	545
177	553
178	593
179	548
180	500
181	546
182	508
183	560
184	509
185	592
186	568
187	531
188	506
189	556
190	525
191	482
192	514
193	520
194	527
195	532
196	501
197	508
198	459
199	525
200	566
201	523
202	519
203	557
204	494
205	532
206	539
207	515
208	486
209	492
210	480
211	515
212	490
213	511
214	481
215	496
216	474
217	510
218	510
219	478
220	496
221	550
222	426
223	510
224	496
225	493
226	477
227	473
228	464
229	471
230	484
231	447
232	475
233	477
234	471
235	439
236	454
237	496
238	455
239	465
240	452
241	463
242	442
243	477
244	435
245	430
246	463
247	422
248	440
249	434
250	432
251	426
252	448
253	455
254	425
255	439
256	482
257	412
258	429
259	466
260	408
261	459
262	445
263	459
264	467
265	468
266	489
267	422
268	426
269	470
270	476
271	455
272	422
273	445
274	434
275	406
276	427
277	410
278	439
279	415
280	454
281	408
282	420
283	470
284	430
285	451
286	411
287	474
288	474
289	466
290	402
291	405
292	456
293	433
294	451
295	412
296	418
297	440
298	426
299	419
300	444
301	436
302	428
303	431
304	436
305	438
306	469
307	436
308	415
309	409
310	434
311	413
312	408
313	428
314	441
315	405
316	431
317	414
318	416
319	429
320	464
321	425
322	452
323	435
324	435
325	419
326	439
327	424
328	427
329	403
330	432
331	456
332	429
333	436
334	446
335	427
336	409
337	446
338	400
339	388
340	442
341	473
342	433
343	428
344	442
345	422
346	413
347	417
348	432
349	424
350	441
351	423
352	431
353	408
354	442
355	423
356	441
357	405
358	409
359	416
360	411
361	436
362	435
363	416
364	436
365	467
366	400
367	436
368	447
369	421
370	423
371	420
372	452
373	423
374	413
375	409
376	438
377	426
378	433
379	430
380	409
381	459
382	407
383	419
384	439
385	397
386	431
387	412
388	457
389	418
390	394
391	397
392	467
393	423
394	403
395	444
396	414
397	435
398	426
399	437
400	458
401	446
402	420
403	415
404	384
405	399
406	437
407	467
408	423
409	440
410	452
411	444
412	410
413	422
414	414
415	431
416	417
417	469
418	442
419	448
420	405
421	434
422	402
423	414
424	396
425	416
426	427
427	410
428	398
429	427
430	431
431	431
432	435
433	438
434	462
435	422
436	423
437	429
438	450
439	448
440	454
441	410
442	464
443	432
444	420
445	411
446	456
447	434
448	456
449	426
450	422
451	410
452	419
453	447
454	436
455	489
456	411
457	404
458	456
459	417
460	445
461	454
462	447
463	443
464	451
465	445
466	447
467	443
468	472
469	444
470	431
471	435
472	442
473	463
474	435
475	481
476	441
477	449
478	413
479	460
480	419
481	431
482	483
483	454
484	470
485	431
486	487
487	430
488	443
489	454
490	475
491	486
492	440
493	421
494	471
495	481
496	466
497	448
498	454
499	441
500	459
501	462
502	460
503	433
504	454
505	412
506	478
507	460
508	465
509	485
510	450
511	461
512	438
513	458
514	425
515	500
516	495
517	461
518	458
519	485
520	426
521	472
522	448
523	453
524	467
525	520
526	507
527	494
528	472
529	480
530	514
531	501
532	453
533	481
534	520
535	445
536	489
537	454
538	489
539	465
540	506
541	534
542	479
543	517
544	444
545	450
546	484
547	480
548	465
549	521
550	458
551	510
552	503
553	475
554	537
555	494
556	507
557	542
558	503
559	490
560	503
561	503
562	478
563	456
564	515
565	508
566	530
567	519
568	498
569	489
570	496
571	461
572	522
573	528
574	511
575	545
576	537
577	525
578	462
579	473
580	477
581	477
582	551
583	515
584	474
585	519
586	504
587	460
588	450
589	475
590	485
591	460
592	525
593	515
594	491
595	538
596	512
597	513
598	544
599	495
600	486
601	505
602	508
603	536
604	532
605	489
606	492
607	494
608	505
609	510
610	504
611	535
612	560
613	589
614	533
615	485
616	493
617	497
618	525
619	502
620	473
621	480
622	454
623	495
624	493
625	492
626	482
627	495
628	472
629	468
630	422
631	451
632	451
633	443
634	407
635	391
636	439
637	393
638	399
639	422
640	375
641	423
642	428
643	398
644	397
645	364
646	390
647	363
648	377
649	329
650	343
651	354
652	344
653	366
654	342
655	354
656	350
657	354
658	349
659	378
660	346
661	335
662	313
663	326
664	299
665	339
666	311
667	328
668	306
669	295
670	326
671	331
672	303
673	322
674	333
675	291
676	337
677	314
678	315
679	303
680	305
681	334
682	293
683	303
684	327
685	309
686	335
687	313
688	308
689	346
690	308
691	338
692	313
693	310
694	299
695	300
696	290
697	299
698	292
699	315
700	344
701	288
702	336
703	286
704	286
705	284
706	287
707	283
708	316
709	281
710	293
711	286
712	291
713	265
714	263
715	273
716	252
717	268
718	267
719	274
720	270
721	283
722	272
723	269
724	261
725	257
726	240
727	288
728	255
729	250
730	271
731	281
732	270
733	288
734	278
735	301
736	315
737	314
738	365
739	355
740	390
741	435
742	426
743	447
744	530
745	506
746	598
747	618
748	646
749	689
750	738
751	848
752	877
753	921
754	1045
755	1062
756	1138
757	1236
758	1254
759	1375
760	1394
761	1492
762	1523
763	1648
764	1766
765	1813
766	1879
767	1769
768	1779
769	1926
770	1953
771	2030
772	1978
773	2021
774	2045
775	2043
776	2074
777	2003
778	2008
779	1992
780	1991
781	1937
782	1870
783	1783
784	1795
785	1607
786	1623
787	1525
788	1478
789	1447
790	1349
791	1257
792	1184
793	1115
794	1045
795	1009
796	938
797	861
798	757
799	704
800	646
801	640
802	559
803	516
804	470
805	449
806	430
807	326
808	330
809	308
810	282
811	262
812	220
813	224
814	162
815	195
816	168
817	163
818	144
819	125
820	132
821	139
822	131
823	122
824	118
825	129
826	100
827	108
828	113
829	119
830	119
831	106
832	133
833	145
834	157
835	160
836	169
837	172
838	168
839	218
840	241
841	242
842	291
843	285
844	292
845	315
846	365
847	382
848	429
849	441
850	520
851	522
852	571
853	676
854	719
855	709
856	782
857	787
858	894
859	965
860	1012
861	1044
862	1110
863	1156
864	1294
865	1200
866	1312
867	1337
868	1428
869	1492
870	1519
871	1539
872	1505
873	1645
874	1558
875	1656
876	1588
877	1629
878	1613
879	1603
880	1629
881	1621
882	1640
883	1586
884	1639
885	1555
886	1440
887	1447
888	1483
889	1374
890	1285
891	1253
892	1199
893	1127
894	1084
895	1077
896	970
897	910
898	874
899	861
900	810
901	731
902	707
903	655
904	593
905	576
906	535
907	457
908	451
909	424
910	357
911	359
912	326
913	293
914	281
915	242
916	224
917	182
918	205
919	194
920	209
921	175
922	143
923	151
924	146
925	122
926	131
927	141
928	116
929	112
930	107
931	113
932	113
933	93
934	100
935	103
936	87
937	104
938	87
939	100
940	89
941	74
942	85
943	88
944	93
945	79
946	71
947	83
948	104
949	83
950	83
951	82
952	80
953	78
954	85
955	77
956	91
957	82
958	77
959	76
960	86
961	78
962	100
963	77
964	73
965	92
966	84
967	91
968	87
969	72
970	94
971	79
972	70
973	86
974	73
975	68
976	81
977	89
978	78
979	83
980	68
981	76
982	80
983	98
984	81
985	75
986	82
987	71
988	81
989	68
990	71
991	81
992	94
993	69
994	74
995	75
996	77
997	74
998	67
999	67
1000	82
1001	82
1002	81
1003	78
1004	68
1005	71
1006	82
1007	75
1008	78
1009	77
1010	75
1011	79
1012	82
1013	69
1014	77
1015	96
1016	70
1017	74
1018	78
1019	85
1020	61
1021	62
1022	76
1023	89
1024	89
1025	68
1026	66
1027	78
1028	69
1029	80
1030	66
1031	77
1032	79
1033	67
1034	70
1035	77
1036	79
1037	79
1038	72
1039	94
1040	72
1041	71
1042	75
1043	82
1044	69
1045	73
1046	74
1047	76
1048	88
1049	72
1050	75
1051	78
1052	64
1053	85
1054	72
1055	67
1056	72
1057	67
1058	76
1059	74
1060	74
1061	70
1062	73
1063	71
1064	97
1065	67
1066	62
1067	66
1068	74
1069	72
1070	67
1071	70
1072	55
1073	63
1074	71
1075	79
1076	64
1077	52
1078	80
1079	77
1080	69
1081	55
1082	81
1083	67
1084	79
1085	67
1086	66
1087	68
1088	64
1089	68
1090	62
1091	56
1092	55
1093	67
1094	62
1095	58
1096	64
1097	74
1098	55
1099	64
1100	56
1101	66
1102	70
1103	60
1104	61
1105	63
1106	55
1107	75
1108	55
1109	60
1110	75
1111	47
1112	54
1113	59
1114	65
1115	60
1116	64
1117	65
1118	50
1119	65
1120	61
1121	44
1122	69
1123	60
1124	58
1125	53
1126	55
1127	60
1128	65
1129	64
1130	88
1131	47
1132	46
1133	68
1134	63
1135	44
1136	43
1137	61
1138	52
1139	62
1140	61
1141	63
1142	61
1143	59
1144	58
1145	57
1146	58
1147	61
1148	59
1149	60
1150	59
1151	52
1152	65
1153	57
1154	63
1155	55
1156	57
1157	69
1158	65
1159	72
1160	56
1161	64
1162	59
1163	67
1164	58
1165	54
1166	62
1167	52
1168	58
1169	62
1170	54
1171	64
1172	56
1173	69
1174	80
1175	49
1176	62
1177	68
1178	58
1179	49
1180	54
1181	43
1182	48
1183	45
1184	57
1185	65
1186	53
1187	44
1188	60
1189	57
1190	52
1191	57
1192	49
1193	43
1194	51
1195	61
1196	55
1197	57
1198	49
1199	51
1200	54
1201	42
1202	47
1203	58
1204	55
1205	52
1206	40
1207	53
1208	46
1209	63
1210	56
1211	61
1212	49
1213	48
1214	56
1215	72
1216	58
1217	64
1218	50
1219	57
1220	53
1221	50
1222	48
1223	60
1224	51
1225	49
1226	51
1227	59
1228	42
1229	60
1230	50
1231	49
1232	48
1233	53
1234	57
1235	42
1236	44
1237	45
1238	57
1239	42
1240	43
1241	49
1242	49
1243	47
1244	54
1245	50
1246	43
1247	46
1248	46
1249	53
1250	42
1251	54
1252	43
1253	47
1254	52
1255	51
1256	49
1257	48
1258	46
1259	40
1260	51
1261	51
1262	51
1263	50
1264	51
1265	39
1266	39
1267	41
1268	50
1269	32
1270	57
1271	54
1272	49
1273	44
1274	54
1275	44
1276	35
1277	49
1278	63
1279	54
1280	43
1281	41
1282	41
1283	48
1284	37
1285	48
1286	40
1287	42
1288	48
1289	54
1290	48
1291	48
1292	49
1293	49
1294	48
1295	34
1296	52
1297	40
1298	52
1299	40
1300	36
1301	48
1302	56
1303	43
1304	48
1305	44
1306	36
1307	38
1308	37
1309	39
1310	46
1311	47
1312	43
1313	38
1314	50
1315	43
1316	33
1317	42
1318	43
1319	47
1320	33
1321	47
1322	29
1323	44
1324	45
1325	57
1326	46
1327	43
1328	40
1329	51
1330	42
1331	51
1332	48
1333	51
1334	52
1335	46
1336	39
1337	50
1338	34
1339	52
1340	51
1341	51
1342	54
1343	39
1344	35
1345	40
1346	32
1347	51
1348	44
1349	37
1350	38
1351	42
1352	45
1353	43
1354	43
1355	49
1356	42
1357	46
1358	43
1359	44
1360	50
1361	39
1362	38
1363	45
1364	39
1365	37
1366	46
1367	37
1368	32
1369	36
1370	51
1371	42
1372	44
1373	54
1374	46
1375	32
1376	32
1377	32
1378	44
1379	34
1380	50
1381	45
1382	49
1383	28
1384	42
1385	55
1386	33
1387	42
1388	38
1389	36
1390	38
1391	48
1392	40
1393	36
1394	36
1395	46
1396	41
1397	31
1398	52
1399	38
1400	29
1401	50
1402	34
1403	41
1404	35
1405	47
1406	46
1407	51
1408	53
1409	36
1410	33
1411	42
1412	34
1413	32
1414	37
1415	38
1416	33
1417	39
1418	37
1419	37
1420	43
1421	46
1422	31
1423	39
1424	47
1425	51
1426	33
1427	37
1428	56
1429	36
1430	42
1431	51
1432	29
1433	45
1434	53
1435	43
1436	39
1437	36
1438	32
1439	44
1440	36
1441	39
1442	35
1443	40
1444	42
1445	39
1446	52
1447	46
1448	39
1449	44
1450	38
1451	49
1452	55
1453	50
1454	54
1455	51
1456	32
1457	32
1458	43
1459	40
1460	35
1461	45
1462	45
1463	35
1464	33
1465	45
1466	43
1467	33
1468	32
1469	30
1470	39
1471	44
1472	34
1473	44
1474	49
1475	35
1476	48
1477	47
1478	42
1479	31
1480	40
1481	45
1482	48
1483	28
1484	40
1485	27
1486	48
1487	33
1488	41
1489	35
1490	38
1491	33
1492	40
1493	36
1494	43
1495	40
1496	50
1497	33
1498	37
1499	41
1500	41
1501	45
1502	25
1503	29
1504	42
1505	33
1506	32
1507	44
1508	33
1509	32
1510	42
1511	28
1512	29
1513	30
1514	29
1515	26
1516	20
1517	35
1518	26
1519	34
1520	21
1521	21
1522	32
1523	27
1524	31
1525	27
1526	26
1527	21
1528	21
1529	20
1530	25
1531	23
1532	26
1533	18
1534	18
1535	21
1536	20
1537	18
1538	18
1539	16
1540	20
1541	25
1542	17
1543	18
1544	17
1545	17
1546	12
1547	16
1548	18
1549	16
1550	9
1551	15
1552	13
1553	13
1554	19
1555	12
1556	16
1557	11
1558	9
1559	17
1560	12
1561	14
1562	16
1563	13
1564	7
1565	21
1566	16
1567	15
1568	12
1569	13
1570	17
1571	8
1572	10
1573	11
1574	9
1575	9
1576	12
1577	16
1578	5
1579	9
1580	13
1581	7
1582	10
1583	13
1584	18
1585	5
1586	11
1587	13
1588	18
1589	13
1590	13
1591	10
1592	10
1593	13
1594	12
1595	13
1596	9
1597	13
1598	14
1599	14
1600	16
1601	10
1602	16
1603	12
1604	14
1605	17
1606	11
1607	10
1608	16
1609	21
1610	14
1611	20
1612	18
1613	23
1614	21
1615	28
1616	18
1617	19
1618	16
1619	29
1620	25
1621	21
1622	35
1623	29
1624	41
1625	34
1626	40
1627	38
1628	36
1629	34
1630	49
1631	47
1632	38
1633	53
1634	47
1635	49
1636	42
1637	57
1638	54
1639	60
1640	64
1641	58
1642	57
1643	58
1644	74
1645	66
1646	75
1647	61
1648	66
1649	71
1650	89
1651	75
1652	77
1653	77
1654	87
1655	86
1656	72
1657	88
1658	92
1659	85
1660	78
1661	79
1662	87
1663	90
1664	93
1665	88
1666	81
1667	76
1668	95
1669	85
1670	89
1671	75
1672	82
1673	71
1674	76
1675	79
1676	75
1677	83
1678	76
1679	72
1680	70
1681	64
1682	60
1683	64
1684	57
1685	45
1686	53
1687	56
1688	41
1689	47
1690	38
1691	42
1692	52
1693	37
1694	34
1695	43
1696	45
1697	38
1698	50
1699	38
1700	25
1701	33
1702	35
1703	26
1704	23
1705	24
1706	21
1707	19
1708	22
1709	22
1710	16
1711	18
1712	23
1713	25
1714	12
1715	15
1716	8
1717	6
1718	12
1719	12
1720	13
1721	17
1722	15
1723	11
1724	7
1725	11
1726	9
1727	13
1728	6
1729	9
1730	9
1731	7
1732	10
1733	7
1734	4
1735	7
1736	5
1737	7
1738	2
1739	4
1740	4
1741	6
1742	7
1743	8
1744	14
1745	5
1746	2
1747	1
1748	4
1749	7
1750	5
1751	10
1752	4
1753	3
1754	4
1755	1
1756	2
1757	9
1758	3
1759	4
1760	2
1761	5
1762	5
1763	5
1764	6
1765	6
1766	5
1767	1
1768	5
1769	6
1770	3
1771	5
1772	1
1773	3
1774	4
1775	3
1776	2
1777	4
1778	2
1779	1
1780	2
1781	3
1782	3
1783	2
1784	5
1785	4
1786	2
1787	3
1788	1
1789	4
1790	2
1791	4
1792	6
1793	4
1794	3
1795	3
1796	4
1797	4
1798	2
1799	3
1800	3
1801	4
1802	3
1803	2
1804	6
1805	1
1806	4
1807	5
1808	3
1809	5
1810	1
1811	4
1812	2
1813	1
1814	1
1815	3
1816	2
1817	3
1818	1
1819	5
1820	3
1821	3
1822	3
1823	3
1824	1
1825	3
1826	3
1827	2
1828	1
1829	3
1830	4
1831	3
1832	1
1833	6
1834	4
1835	3
1836	3
1837	5
1838	1
1839	4
1840	1
1841	2
1842	2
1843	2
1844	2
1845	1
1846	0
1847	1
1848	3
1849	2
1850	0
1851	2
1852	2
1853	2
1854	4
1855	3
1856	2
1857	4
1858	0
1859	2
1860	1
1861	1
1862	1
1863	3
1864	1
1865	4
1866	3
1867	3
1868	3
1869	5
1870	3
1871	5
1872	0
1873	6
1874	3
1875	0
1876	3
1877	3
1878	0
1879	2
1880	2
1881	2
1882	0
1883	2
1884	3
1885	3
1886	2
1887	3
1888	2
1889	1
1890	2
1891	1
1892	1
1893	2
1894	0
1895	2
1896	1
1897	1
1898	0
1899	3
1900	1
1901	4
1902	3
1903	3
1904	3
1905	5
1906	2
1907	3
1908	4
1909	1
1910	1
1911	5
1912	3
1913	1
1914	0
1915	4
1916	0
1917	2
1918	1
1919	2
1920	1
1921	1
1922	2
1923	1
1924	2
1925	0
1926	1
1927	1
1928	0
1929	1
1930	0
1931	1
1932	0
1933	1
1934	2
1935	1
1936	2
1937	2
1938	2
1939	4
1940	2
1941	0
1942	3
1943	2
1944	2
1945	2
1946	0
1947	3
1948	1
1949	1
1950	1
1951	2
1952	4
1953	0
1954	1
1955	1
1956	1
1957	1
1958	0
1959	1
1960	1
1961	1
1962	1
1963	2
1964	1
1965	2
1966	3
1967	0
1968	0
1969	1
1970	1
1971	1
1972	3
1973	3
1974	1
1975	2
1976	1
1977	1
1978	2
1979	5
1980	2
1981	2
1982	1
1983	3
1984	3
1985	4
1986	2
1987	4
1988	1
1989	0
1990	1
1991	0
1992	1
1993	2
1994	0
1995	2
1996	1
1997	4
1998	1
1999	1
2000	2
2001	2
2002	3
2003	1
2004	3
2005	0
2006	0
2007	1
2008	1
2009	3
2010	3
2011	1
2012	2
2013	2
2014	0
2015	0
2016	0
2017	0
2018	0
2019	0
2020	0
2021	0
2022	0
2023	0
2024	0
2025	0
2026	0
2027	0
2028	0
2029	0
2030	0
2031	0
2032	0
2033	0
2034	0
2035	0
2036	0
2037	0
2038	0
2039	0
2040	0
2041	0
2042	0
2043	0
2044	0
2045	0
2046	0
2047	0
