0	0
1	0
2	0
3	0
4	0
5	0
6	0
7	0
8	0
9	3
10	51
11	180
12	578
13	2720
14	2414
15	985
16	566
17	438
18	403
19	437
20	398
21	392
22	410
23	438
24	413
25	398
26	407
27	417
28	449
29	435
30	427
31	431
32	417
33	413
34	419
35	426
36	402
37	416
38	440
39	430
40	409
41	427
42	467
43	406
44	425
45	398
46	404
47	424
48	454
49	422
50	419
51	409
52	429
53	432
54	401
55	401
56	395
57	413
58	407
59	442
60	447
61	423
62	419
63	404
64	427
65	467
66	416
67	451
68	452
69	432
70	418
71	393
72	435
73	389
74	435
75	434
76	405
77	433
78	438
79	400
80	422
81	419
82	445
83	440
84	380
85	425
86	412
87	421
88	425
89	444
90	371
91	373
92	407
93	446
94	387
95	420
96	441
97	401
98	399
99	407
100	412
101	410
102	451
103	426
104	413
105	443
106	432
107	401
108	438
109	390
110	448
111	413
112	457
113	391
114	422
115	435
116	439
117	441
118	427
119	405
120	435
121	420
122	433
123	426
124	416
125	435
126	391
127	407
128	413
129	497
130	404
131	409
132	409
133	435
134	404
135	418
136	437
137	410
138	418
139	442
140	436
141	446
142	464
143	462
144	458
145	479
146	453
147	517
148	544
149	517
150	567
151	550
152	528
153	565
154	598
155	531
156	553
157	594
158	558
159	587
160	532
161	590
162	597
163	560
164	570
165	582
166	628
167	586
168	544
169	566
170	533
171	562
172	507
173	550
174	558
175	520
176	544
177	508
178	543
179	533
180	494
181	520
182	535
183	520
184	553
185	551
186	514
187	528
188	497
189	509
190	476
191	495
192	498
193	468
194	535
195	455
196	479
197	452
198	530
199	477
200	502
201	481
202	497
203	493
204	491
205	507
206	476
207	438
208	450
209	485
210	540
211	485
212	484
213	517
214	470
215	463
216	440
217	462
218	479
219	509
220	481
221	469
222	452
223	474
224	476
225	475
226	453
227	462
228	445
229	455
230	432
231	470
232	430
233	496
234	430
235	465
236	432
237	441
238	430
239	514
240	431
241	456
242	438
243	465
244	453
245	431
246	436
247	440
248	442
249	424
250	503
251	463
252	467
253	418
254	434
255	392
256	452
257	421
258	479
259	447
260	471
261	465
262	445
263	407
264	442
265	440
266	417
267	424
268	438
269	425
270	462
271	419
272	442
273	452
274	437
275	386
276	441
277	386
278	421
279	439
280	415
281	402
282	436
283	444
284	418
285	448
286	372
287	436
288	440
289	410
290	409
291	422
292	439
293	421
294	458
295	402
296	423
297	407
298	422
299	410
300	398
301	438
302	432
303	430
304	450
305	441
306	407
307	425
308	399
309	398
310	421
311	418
312	412
313	417
314	435
315	392
316	402
317	454
318	424
319	399
320	408
321	409
322	411
323	411
324	418
325	415
326	410
327	390
328	403
329	391
330	435
331	432
332	400
333	416
334	418
335	409
336	397
337	420
338	425
339	413
340	450
341	403
342	431
343	401
344	356
345	416
346	421
347	408
348	405
349	434
350	425
351	400
352	437
353	418
354	427
355	387
356	427
357	405
358	415
359	403
360	430
361	420
362	455
363	415
364	412
365	395
366	394
367	443
368	444
369	380
370	410
371	410
372	427
373	405
374	406
375	374
376	405
377	414
378	445
379	369
380	428
381	403
382	410
383	429
384	441
385	440
386	422
387	396
388	403
389	421
390	385
391	415
392	442
393	404
394	415
395	411
396	436
397	422
398	431
399	400
400	449
401	422
402	409
403	402
404	393
405	416
406	404
407	417
408	403
409	427
410	442
411	409
412	437
413	395
414	465
415	418
416	429
417	413
418	390
419	448
420	355
421	407
422	431
423	413
424	396
425	435
426	390
427	413
428	420
429	433
430	382
431	392
432	422
433	418
434	389
435	409
436	430
437	410
438	421
439	400
440	415
441	455
442	409
443	448
444	428
445	409
446	449
447	407
448	445
449	419
450	400
451	422
452	427
453	445
454	415
455	392
456	405
457	437
458	419
459	484
460	400
461	489
462	410
463	453
464	442
465	452
466	423
467	465
468	425
469	455
470	452
471	406
472	404
473	421
474	455
475	451
476	411
477	404
478	441
479	397
480	425
481	435
482	432
483	460
484	421
485	454
486	423
487	484
488	396
489	439
490	445
491	456
492	434
493	431
494	444
495	415
496	421
497	460
498	447
499	454
500	424
501	469
502	427
503	431
504	461
505	415
506	421
507	430
508	441
509	454
510	408
511	460
512	481
513	444
514	489
515	433
516	448
517	490
518	438
519	423
520	438
521	433
522	435
523	437
524	408
525	461
526	448
527	440
528	459
529	454
530	465
531	431
532	461
533	462
534	450
535	462
536	452
537	456
538	472
539	463
540	488
541	462
542	491
543	494
544	481
545	506
546	460
547	465
548	462
549	519
550	480
551	494
552	474
553	456
554	509
555	468
556	516
557	455
558	514
559	476
560	516
561	493
562	477
563	475
564	504
565	491
566	518
567	476
568	515
569	442
570	487
571	502
572	495
573	513
574	481
575	510
576	463
577	493
578	469
579	487
580	467
581	509
582	517
583	480
584	495
585	526
586	476
587	504
588	512
589	471
590	466
591	517
592	504
593	508
594	512
595	471
596	485
597	482
598	484
599	437
600	486
601	510
602	454
603	508
604	459
605	493
606	493
607	486
608	460
609	468
610	475
611	456
612	522
613	468
614	443
615	492
616	489
617	471
618	508
619	513
620	509
621	487
622	462
623	478
624	488
625	452
626	467
627	480
628	450
629	419
630	405
631	458
632	512
633	447
634	440
635	473
636	421
637	443
638	412
639	406
640	412
641	407
642	432
643	380
644	376
645	378
646	351
647	393
648	359
649	371
650	368
651	335
652	386
653	364
654	354
655	364
656	325
657	342
658	323
659	344
660	340
661	332
662	341
663	328
664	296
665	339
666	358
667	311
668	334
669	325
670	297
671	332
672	318
673	305
674	305
675	326
676	325
677	322
678	320
679	296
680	308
681	294
682	296
683	291
684	275
685	305
686	335
687	308
688	307
689	323
690	297
691	303
692	251
693	286
694	278
695	289
696	297
697	315
698	302
699	267
700	301
701	272
702	265
703	305
704	294
705	284
706	336
707	301
708	320
709	280
710	267
711	280
712	281
713	285
714	295
715	252
716	252
717	275
718	253
719	268
720	277
721	288
722	269
723	253
724	272
725	261
726	234
727	278
728	245
729	272
730	267
731	264
732	251
733	270
734	252
735	285
736	253
737	261
738	302
739	319
740	301
741	331
742	325
743	378
744	356
745	408
746	387
747	387
748	472
749	510
750	565
751	619
752	578
753	673
754	759
755	785
756	853
757	945
758	915
759	1091
760	1058
761	1226
762	1257
763	1389
764	1390
765	1453
766	1561
767	1577
768	1686
769	1688
770	1805
771	1828
772	1949
773	1991
774	1935
775	2019
776	1927
777	2040
778	1982
779	2049
780	2060
781	2011
782	1979
783	1968
784	1917
785	1870
786	1816
787	1826
788	1707
789	1641
790	1673
791	1441
792	1408
793	1306
794	1231
795	1274
796	1122
797	1040
798	968
799	948
800	825
801	795
802	738
803	703
804	585
805	598
806	522
807	523
808	431
809	374
810	387
811	326
812	312
813	282
814	261
815	220
816	219
817	194
818	182
819	158
820	159
821	140
822	105
823	142
824	91
825	118
826	110
827	99
828	102
829	112
830	90
831	112
832	120
833	87
834	126
835	125
836	99
837	146
838	128
839	141
840	157
841	175
842	190
843	195
844	210
845	208
846	243
847	265
848	265
849	317
850	339
851	336
852	381
853	400
854	496
855	506
856	573
857	564
858	650
859	695
860	721
861	750
862	835
863	896
864	926
865	1067
866	1066
867	1123
868	1195
869	1242
870	1301
871	1274
872	1352
873	1338
874	1477
875	1482
876	1546
877	1588
878	1613
879	1558
880	1683
881	1637
882	1656
883	1622
884	1653
885	1617
886	1646
887	1637
888	1551
889	1469
890	1542
891	1389
892	1461
893	1335
894	1344
895	1321
896	1255
897	1236
898	1152
899	1023
900	970
901	1004
902	935
903	836
904	773
905	762
906	688
907	667
908	620
909	546
910	526
911	494
912	421
913	386
914	357
915	357
916	318
917	264
918	279
919	237
920	243
921	244
922	188
923	181
924	175
925	144
926	153
927	137
928	138
929	117
930	129
931	105
932	117
933	107
934	105
935	111
936	98
937	114
938	101
939	79
940	101
941	92
942	115
943	94
944	86
945	81
946	96
947	95
948	83
949	71
950	90
951	71
952	69
953	90
954	76
955	81
956	74
957	71
958	78
959	66
960	75
961	79
962	78
963	77
964	80
965	63
966	79
967	80
968	81
969	77
970	90
971	85
972	71
973	87
974	89
975	74
976	73
977	85
978	83
979	89
980	74
981	70
982	68
983	83
984	79
985	67
986	75
987	82
988	57
989	62
990	77
991	77
992	68
993	70
994	64
995	75
996	74
997	75
998	95
999	83
1000	69
1001	73
1002	81
1003	74
1004	74
1005	83
1006	60
1007	62
1008	88
1009	76
1010	75
1011	73
1012	78
1013	78
1014	93
1015	74
1016	80
1017	72
1018	72
1019	68
1020	82
1021	72
1022	81
1023	70
1024	66
1025	81
1026	76
1027	75
1028	80
1029	88
1030	59
1031	81
1032	72
1033	71
1034	76
1035	67
1036	69
1037	74
1038	72
1039	73
1040	72
1041	55
1042	80
1043	68
1044	66
1045	75
1046	71
1047	61
1048	84
1049	67
1050	70
1051	67
1052	66
1053	83
1054	69
1055	66
1056	66
1057	72
1058	93
1059	67
1060	69
1061	63
1062	70
1063	70
1064	74
1065	69
1066	74
1067	68
1068	77
1069	73
1070	69
1071	80
1072	69
1073	70
1074	74
1075	74
1076	69
1077	69
1078	69
1079	62
1080	65
1081	68
1082	52
1083	58
1084	63
1085	62
1086	66
1087	73
1088	67
1089	63
1090	59
1091	59
1092	51
1093	66
1094	73
1095	57
1096	61
1097	61
1098	62
1099	69
1100	52
1101	67
1102	63
1103	59
1104	54
1105	58
1106	53
1107	70
1108	57
1109	64
1110	64
1111	56
1112	47
1113	64
1114	69
1115	52
1116	60
1117	58
1118	56
1119	55
1120	58
1121	56
1122	48
1123	54
1124	47
1125	65
1126	53
1127	47
1128	64
1129	57
1130	64
1131	62
1132	58
1133	51
1134	70
1135	56
1136	57
1137	53
1138	50
1139	60
1140	60
1141	43
1142	49
1143	43
1144	59
1145	58
1146	61
1147	62
1148	48
1149	61
1150	52
1151	57
1152	52
1153	63
1154	60
1155	56
1156	49
1157	53
1158	56
1159	60
1160	51
1161	66
1162	61
1163	55
1164	44
1165	53
1166	72
1167	49
1168	57
1169	58
1170	48
1171	52
1172	53
1173	53
1174	42
1175	60
1176	55
1177	53
1178	46
1179	57
1180	59
1181	58
1182	54
1183	51
1184	49
1185	51
1186	47
1187	49
1188	62
1189	70
1190	57
1191	50
1192	41
1193	50
1194	47
1195	43
1196	47
1197	41
1198	74
1199	40
1200	46
1201	51
1202	55
1203	55
1204	44
1205	44
1206	48
1207	37
1208	55
1209	50
1210	41
1211	44
1212	52
1213	58
1214	55
1215	42
1216	38
1217	46
1218	47
1219	46
1220	39
1221	44
1222	37
1223	61
1224	49
1225	42
1226	60
1227	53
1228	50
1229	53
1230	41
1231	34
1232	50
1233	46
1234	36
1235	51
1236	38
1237	36
1238	55
1239	35
1240	55
1241	52
1242	47
1243	53
1244	43
1245	45
1246	50
1247	52
1248	55
1249	46
1250	47
1251	42
1252	44
1253	44
1254	47
1255	48
1256	33
1257	55
1258	33
1259	55
1260	41
1261	41
1262	45
1263	39
1264	51
1265	61
1266	47
1267	35
1268	41
1269	44
1270	52
1271	46
1272	47
1273	50
1274	33
1275	53
1276	38
1277	39
1278	29
1279	39
1280	38
1281	45
1282	34
1283	47
1284	38
1285	37
1286	41
1287	37
1288	45
1289	47
1290	40
1291	44
1292	41
1293	48
1294	44
1295	38
1296	50
1297	46
1298	43
1299	38
1300	39
1301	40
1302	39
1303	52
1304	42
1305	41
1306	40
1307	37
1308	45
1309	50
1310	38
1311	41
1312	43
1313	28
1314	57
1315	41
1316	49
1317	34
1318	43
1319	49
1320	43
1321	42
1322	36
1323	45
1324	46
1325	42
1326	47
1327	39
1328	33
1329	44
1330	35
1331	61
1332	34
1333	40
1334	50
1335	40
1336	33
1337	39
1338	41
1339	32
1340	46
1341	54
1342	45
1343	41
1344	46
1345	47
1346	44
1347	33
1348	33
1349	36
1350	44
1351	56
1352	41
1353	45
1354	36
1355	51
1356	40
1357	41
1358	42
1359	37
1360	52
1361	39
1362	38
1363	35
1364	34
1365	34
1366	34
1367	35
1368	52
1369	39
1370	38
1371	39
1372	50
1373	34
1374	41
1375	33
1376	37
1377	36
1378	44
1379	34
1380	37
1381	36
1382	28
1383	35
1384	33
1385	32
1386	51
1387	44
1388	51
1389	46
1390	35
1391	43
1392	42
1393	37
1394	38
1395	28
1396	49
1397	40
1398	34
1399	38
1400	36
1401	39
1402	43
1403	47
1404	43
1405	36
1406	45
1407	46
1408	41
1409	28
1410	35
1411	42
1412	42
1413	37
1414	49
1415	35
1416	37
1417	39
1418	47
1419	45
1420	37
1421	40
1422	41
1423	32
1424	38
1425	38
1426	37
1427	36
1428	33
1429	36
1430	25
1431	37
1432	33
1433	41
1434	40
1435	39
1436	38
1437	38
1438	35
1439	33
1440	41
1441	52
1442	25
1443	42
1444	38
1445	36
1446	35
1447	48
1448	47
1449	33
1450	38
1451	38
1452	40
1453	33
1454	43
1455	39
1456	34
1457	36
1458	40
1459	36
1460	33
1461	45
1462	53
1463	36
1464	32
1465	45
1466	36
1467	40
1468	36
1469	44
1470	38
1471	40
1472	40
1473	42
1474	37
1475	48
1476	37
1477	37
1478	23
1479	23
1480	50
1481	39
1482	38
1483	45
1484	31
1485	38
1486	52
1487	27
1488	29
1489	33
1490	36
1491	32
1492	41
1493	29
1494	32
1495	24
1496	37
1497	48
1498	43
1499	38
1500	42
1501	31
1502	37
1503	27
1504	26
1505	29
1506	40
1507	38
1508	38
1509	34
1510	44
1511	28
1512	25
1513	34
1514	34
1515	29
1516	25
1517	29
1518	31
1519	34
1520	30
1521	33
1522	26
1523	29
1524	25
1525	27
1526	31
1527	23
1528	24
1529	23
1530	28
1531	30
1532	24
1533	29
1534	25
1535	24
1536	33
1537	20
1538	29
1539	22
1540	27
1541	14
1542	23
1543	26
1544	33
1545	14
1546	25
1547	19
1548	20
1549	18
1550	18
1551	19
1552	13
1553	20
1554	16
1555	18
1556	19
1557	20
1558	19
1559	17
1560	16
1561	15
1562	21
1563	17
1564	18
1565	14
1566	20
1567	10
1568	18
1569	21
1570	16
1571	7
1572	13
1573	9
1574	16
1575	5
1576	12
1577	11
1578	13
1579	11
1580	8
1581	11
1582	7
1583	11
1584	12
1585	11
1586	11
1587	12
1588	10
1589	9
1590	19
1591	9
1592	10
1593	10
1594	10
1595	13
1596	10
1597	15
1598	5
1599	11
1600	11
1601	8
1602	5
1603	13
1604	8
1605	7
1606	4
1607	13
1608	15
1609	9
1610	16
1611	13
1612	7
1613	12
1614	9
1615	11
1616	9
1617	15
1618	11
1619	16
1620	14
1621	16
1622	15
1623	26
1624	20
1625	24
1626	23
1627	21
1628	20
1629	18
1630	20
1631	27
1632	35
1633	23
1634	26
1635	35
1636	30
1637	26
1638	35
1639	38
1640	47
1641	50
1642	42
1643	49
1644	47
1645	66
1646	51
1647	61
1648	52
1649	56
1650	56
1651	61
1652	47
1653	56
1654	62
1655	63
1656	75
1657	87
1658	62
1659	85
1660	72
1661	72
1662	74
1663	84
1664	99
1665	83
1666	91
1667	79
1668	89
1669	78
1670	79
1671	82
1672	104
1673	83
1674	86
1675	82
1676	91
1677	105
1678	90
1679	83
1680	84
1681	73
1682	72
1683	85
1684	85
1685	68
1686	74
1687	60
1688	69
1689	73
1690	56
1691	72
1692	63
1693	59
1694	67
1695	58
1696	54
1697	47
1698	33
1699	51
1700	40
1701	61
1702	48
1703	33
1704	45
1705	48
1706	30
1707	34
1708	21
1709	23
1710	28
1711	24
1712	20
1713	22
1714	13
1715	20
1716	17
1717	14
1718	18
1719	9
1720	15
1721	22
1722	6
1723	15
1724	14
1725	7
1726	11
1727	15
1728	10
1729	6
1730	8
1731	12
1732	4
1733	12
1734	4
1735	9
1736	4
1737	6
1738	5
1739	9
1740	12
1741	6
1742	7
1743	3
1744	3
1745	7
1746	5
1747	6
1748	10
1749	5
1750	8
1751	4
1752	5
1753	2
1754	7
1755	4
1756	6
1757	5
1758	1
1759	5
1760	1
1761	4
1762	4
1763	3
1764	3
1765	6
1766	3
1767	5
1768	7
1769	9
1770	1
1771	3
1772	3
1773	4
1774	5
1775	3
1776	3
1777	4
1778	4
1779	7
1780	2
1781	8
1782	4
1783	3
1784	4
1785	3
1786	4
1787	6
1788	2
1789	1
1790	1
1791	5
1792	1
1793	3
1794	4
1795	0
1796	0
1797	6
1798	5
1799	0
1800	3
1801	5
1802	1
1803	3
1804	2
1805	1
1806	3
1807	4
1808	1
1809	3
1810	1
1811	1
1812	3
1813	0
1814	4
1815	4
1816	5
1817	1
1818	3
1819	3
1820	1
1821	5
1822	3
1823	3
1824	2
1825	4
1826	1
1827	0
1828	1
1829	2
1830	1
1831	4
1832	5
1833	2
1834	2
1835	3
1836	4
1837	4
1838	3
1839	2
1840	4
1841	1
1842	3
1843	4
1844	1
1845	0
1846	2
1847	2
1848	3
1849	4
1850	5
1851	1
1852	1
1853	5
1854	1
1855	0
1856	3
1857	1
1858	1
1859	3
1860	5
1861	0
1862	1
1863	3
1864	2
1865	4
1866	2
1867	2
1868	3
1869	1
1870	1
1871	3
1872	2
1873	0
1874	0
1875	0
1876	1
1877	2
1878	2
1879	2
1880	3
1881	3
1882	0
1883	2
1884	3
1885	4
1886	2
1887	4
1888	3
1889	2
1890	2
1891	0
1892	1
1893	2
1894	2
1895	0
1896	3
1897	1
1898	2
1899	1
1900	1
1901	4
1902	2
1903	2
1904	0
1905	1
1906	3
1907	3
1908	2
1909	3
1910	0
1911	1
1912	3
1913	0
1914	5
1915	2
1916	1
1917	2
1918	2
1919	0
1920	1
1921	0
1922	2
1923	0
1924	2
1925	1
1926	1
1927	0
1928	2
1929	1
1930	2
1931	3
1932	1
1933	4
1934	3
1935	2
1936	4
1937	4
1938	2
1939	1
1940	1
1941	4
1942	1
1943	0
1944	4
1945	1
1946	2
1947	1
1948	1
1949	2
1950	4
1951	1
1952	0
1953	2
1954	1
1955	2
1956	3
1957	2
1958	3
1959	2
1960	6
1961	0
1962	1
1963	3
1964	3
1965	6
1966	6
1967	0
1968	1
1969	2
1970	0
1971	1
1972	1
1973	2
1974	3
1975	1
1976	1
1977	1
1978	2
1979	1
1980	1
1981	2
1982	1
1983	1
1984	0
1985	2
1986	2
1987	1
1988	2
1989	0
1990	1
1991	0
1992	1
1993	2
1994	5
1995	2
1996	1
1997	1
1998	0
1999	4
2000	1
2001	0
2002	0
2003	1
2004	1
2005	3
2006	1
2007	3
2008	2
2009	1
2010	0
2011	0
2012	2
2013	0
2014	0
2015	0
2016	0
2017	0
2018	0
2019	0
2020	0
2021	0
2022	0
2023	0
2024	0
2025	0
2026	0
2027	0
2028	0
2029	0
2030	0
2031	0
2032	0
2033	0
2034	0
2035	0
2036	0
2037	0
2038	0
2039	0
2040	0
2041	0
2042	0
2043	0
2044	0
2045	0
2046	0
2047	0
