0	0
1	0
2	0
3	0
4	0
5	0
6	0
7	0
8	0
9	0
10	4
11	111
12	1143
13	5802
14	4374
15	1122
16	460
17	411
18	394
19	397
20	389
21	365
22	362
23	371
24	351
25	423
26	374
27	396
28	418
29	386
30	429
31	400
32	370
33	402
34	404
35	439
36	405
37	374
38	397
39	374
40	390
41	406
42	392
43	339
44	394
45	364
46	375
47	411
48	406
49	376
50	387
51	416
52	385
53	407
54	427
55	397
56	394
57	432
58	372
59	391
60	384
61	389
62	363
63	398
64	384
65	386
66	366
67	382
68	408
69	396
70	415
71	398
72	403
73	367
74	401
75	403
76	391
77	371
78	405
79	378
80	432
81	366
82	377
83	369
84	349
85	380
86	379
87	388
88	377
89	416
90	393
91	368
92	373
93	395
94	393
95	416
96	405
97	390
98	345
99	386
100	394
101	430
102	402
103	392
104	414
105	376
106	404
107	404
108	402
109	410
110	418
111	397
112	421
113	371
114	404
115	420
116	397
117	409
118	404
119	382
120	386
121	409
122	391
123	391
124	372
125	423
126	411
127	392
128	364
129	389
130	427
131	393
132	365
133	386
134	402
135	409
136	423
137	376
138	421
139	383
140	423
141	430
142	400
143	432
144	415
145	400
146	469
147	447
148	466
149	468
150	479
151	510
152	501
153	561
154	488
155	545
156	503
157	516
158	574
159	541
160	521
161	494
162	465
163	545
164	497
165	497
166	524
167	528
168	530
169	508
170	527
171	481
172	489
173	492
174	510
175	507
176	447
177	507
178	496
179	504
180	461
181	498
182	508
183	429
184	485
185	467
186	429
187	435
188	397
189	510
190	484
191	496
192	422
193	458
194	452
195	480
196	456
197	430
198	455
199	434
200	422
201	449
202	468
203	437
204	459
205	429
206	442
207	476
208	467
209	445
210	470
211	449
212	461
213	482
214	423
215	472
216	442
217	453
218	474
219	488
220	448
221	431
222	428
223	449
224	441
225	405
226	430
227	460
228	417
229	429
230	366
231	447
232	438
233	441
234	396
235	416
236	447
237	395
238	395
239	437
240	434
241	376
242	418
243	433
244	404
245	409
246	397
247	408
248	373
249	374
250	416
251	396
252	401
253	445
254	430
255	383
256	413
257	397
258	403
259	409
260	401
261	410
262	393
263	404
264	401
265	385
266	386
267	407
268	407
269	390
270	413
271	411
272	418
273	407
274	399
275	373
276	400
277	418
278	364
279	410
280	380
281	382
282	420
283	404
284	415
285	389
286	412
287	415
288	400
289	404
290	362
291	403
292	421
293	385
294	373
295	386
296	367
297	375
298	386
299	376
300	369
301	398
302	380
303	372
304	405
305	388
306	379
307	404
308	383
309	391
310	383
311	374
312	381
313	393
314	406
315	374
316	415
317	373
318	427
319	389
320	368
321	370
322	390
323	364
324	394
325	378
326	435
327	406
328	368
329	406
330	368
331	400
332	390
333	393
334	387
335	388
336	390
337	385
338	393
339	382
340	409
341	357
342	401
343	393
344	402
345	361
346	384
347	364
348	359
349	432
350	371
351	407
352	376
353	359
354	378
355	421
356	404
357	388
358	387
359	388
360	396
361	384
362	402
363	386
364	370
365	400
366	357
367	358
368	357
369	372
370	424
371	389
372	391
373	410
374	395
375	396
376	383
377	384
378	372
379	378
380	392
381	408
382	378
383	404
384	414
385	419
386	412
387	407
388	359
389	366
390	393
391	386
392	383
393	361
394	416
395	357
396	369
397	370
398	390
399	361
400	361
401	359
402	399
403	401
404	386
405	353
406	363
407	407
408	371
409	354
410	407
411	414
412	389
413	395
414	392
415	373
416	375
417	372
418	368
419	414
420	394
421	421
422	378
423	388
424	392
425	412
426	395
427	366
428	388
429	392
430	368
431	381
432	361
433	367
434	365
435	391
436	429
437	423
438	418
439	392
440	364
441	365
442	397
443	400
444	380
445	413
446	416
447	404
448	403
449	390
450	398
451	440
452	386
453	387
454	396
455	412
456	406
457	415
458	377
459	368
460	402
461	416
462	369
463	377
464	382
465	425
466	393
467	414
468	404
469	404
470	388
471	416
472	402
473	424
474	346
475	437
476	390
477	439
478	401
479	374
480	439
481	396
482	408
483	426
484	416
485	380
486	426
487	394
488	391
489	432
490	441
491	395
492	423
493	402
494	437
495	385
496	387
497	377
498	435
499	414
500	442
501	418
502	453
503	411
504	408
505	394
506	447
507	429
508	412
509	418
510	423
511	441
512	443
513	399
514	470
515	425
516	408
517	426
518	408
519	385
520	438
521	404
522	399
523	423
524	413
525	428
526	446
527	415
528	407
529	408
530	413
531	416
532	424
533	446
534	421
535	393
536	429
537	419
538	458
539	454
540	424
541	437
542	453
543	418
544	463
545	419
546	435
547	453
548	427
549	429
550	476
551	453
552	439
553	474
554	471
555	423
556	426
557	467
558	487
559	468
560	437
561	466
562	441
563	455
564	467
565	480
566	454
567	462
568	480
569	429
570	481
571	474
572	448
573	460
574	447
575	460
576	460
577	438
578	459
579	463
580	454
581	451
582	487
583	509
584	454
585	425
586	436
587	430
588	464
589	425
590	449
591	458
592	464
593	454
594	414
595	469
596	457
597	415
598	456
599	464
600	474
601	465
602	479
603	506
604	516
605	475
606	470
607	432
608	488
609	452
610	459
611	491
612	492
613	415
614	441
615	492
616	452
617	441
618	447
619	423
620	437
621	390
622	427
623	408
624	395
625	416
626	439
627	434
628	430
629	402
630	412
631	398
632	355
633	430
634	389
635	381
636	375
637	372
638	346
639	376
640	336
641	358
642	336
643	346
644	332
645	321
646	321
647	299
648	312
649	334
650	325
651	318
652	320
653	282
654	288
655	304
656	321
657	310
658	304
659	286
660	284
661	317
662	320
663	280
664	277
665	278
666	317
667	293
668	319
669	276
670	308
671	290
672	302
673	324
674	286
675	253
676	247
677	270
678	282
679	301
680	261
681	282
682	258
683	273
684	255
685	305
686	257
687	291
688	270
689	276
690	244
691	233
692	292
693	273
694	267
695	252
696	273
697	257
698	280
699	232
700	266
701	260
702	275
703	243
704	258
705	266
706	249
707	253
708	241
709	230
710	271
711	248
712	238
713	241
714	234
715	242
716	244
717	257
718	268
719	263
720	243
721	235
722	236
723	218
724	250
725	238
726	206
727	222
728	229
729	219
730	226
731	232
732	225
733	245
734	254
735	253
736	260
737	285
738	280
739	314
740	326
741	359
742	362
743	377
744	432
745	405
746	470
747	501
748	541
749	618
750	632
751	657
752	728
753	826
754	857
755	868
756	964
757	963
758	1093
759	1158
760	1180
761	1210
762	1318
763	1321
764	1408
765	1449
766	1488
767	1563
768	1594
769	1655
770	1556
771	1672
772	1701
773	1694
774	1696
775	1714
776	1659
777	1634
778	1649
779	1579
780	1535
781	1472
782	1466
783	1463
784	1363
785	1271
786	1303
787	1191
788	1122
789	1063
790	1006
791	959
792	845
793	831
794	760
795	678
796	634
797	601
798	544
799	504
800	470
801	453
802	401
803	357
804	306
805	282
806	258
807	247
808	181
809	192
810	194
811	162
812	152
813	132
814	129
815	115
816	105
817	106
818	98
819	86
820	88
821	96
822	92
823	94
824	85
825	96
826	84
827	85
828	84
829	111
830	80
831	111
832	99
833	104
834	95
835	117
836	133
837	136
838	147
839	148
840	173
841	197
842	210
843	248
844	216
845	254
846	302
847	320
848	333
849	379
850	398
851	399
852	442
853	517
854	526
855	608
856	629
857	692
858	648
859	693
860	737
861	933
862	867
863	953
864	1002
865	1031
866	1034
867	1120
868	1080
869	1214
870	1208
871	1215
872	1283
873	1302
874	1244
875	1358
876	1339
877	1309
878	1255
879	1346
880	1274
881	1309
882	1287
883	1208
884	1261
885	1246
886	1197
887	1117
888	1089
889	1024
890	987
891	991
892	893
893	878
894	813
895	813
896	764
897	710
898	684
899	635
900	572
901	520
902	515
903	457
904	416
905	383
906	380
907	318
908	289
909	298
910	241
911	245
912	217
913	190
914	187
915	196
916	172
917	155
918	121
919	129
920	121
921	128
922	112
923	97
924	98
925	101
926	98
927	87
928	84
929	77
930	70
931	88
932	88
933	78
934	76
935	67
936	76
937	64
938	73
939	58
940	62
941	62
942	61
943	92
944	66
945	61
946	67
947	53
948	79
949	85
950	67
951	68
952	83
953	67
954	55
955	70
956	77
957	58
958	67
959	81
960	77
961	69
962	61
963	73
964	62
965	72
966	62
967	67
968	77
969	57
970	71
971	74
972	63
973	47
974	72
975	73
976	63
977	52
978	71
979	65
980	57
981	62
982	60
983	66
984	49
985	69
986	66
987	68
988	74
989	59
990	61
991	50
992	53
993	81
994	59
995	75
996	57
997	43
998	55
999	61
1000	60
1001	69
1002	72
1003	69
1004	71
1005	61
1006	54
1007	58
1008	62
1009	68
1010	64
1011	67
1012	65
1013	58
1014	58
1015	49
1016	70
1017	62
1018	55
1019	63
1020	64
1021	61
1022	60
1023	67
1024	47
1025	55
1026	67
1027	58
1028	61
1029	50
1030	81
1031	50
1032	52
1033	52
1034	53
1035	47
1036	52
1037	59
1038	55
1039	70
1040	61
1041	56
1042	53
1043	58
1044	57
1045	69
1046	44
1047	69
1048	51
1049	64
1050	61
1051	45
1052	54
1053	45
1054	45
1055	56
1056	63
1057	59
1058	56
1059	39
1060	56
1061	62
1062	55
1063	64
1064	51
1065	52
1066	57
1067	55
1068	56
1069	68
1070	40
1071	66
1072	60
1073	53
1074	48
1075	50
1076	54
1077	45
1078	70
1079	44
1080	54
1081	50
1082	54
1083	46
1084	55
1085	43
1086	50
1087	42
1088	69
1089	48
1090	56
1091	61
1092	60
1093	54
1094	51
1095	59
1096	52
1097	53
1098	49
1099	44
1100	36
1101	48
1102	53
1103	43
1104	52
1105	44
1106	59
1107	64
1108	55
1109	57
1110	52
1111	59
1112	67
1113	47
1114	40
1115	58
1116	66
1117	49
1118	49
1119	42
1120	50
1121	54
1122	40
1123	45
1124	62
1125	45
1126	43
1127	51
1128	45
1129	43
1130	45
1131	39
1132	48
1133	53
1134	49
1135	47
1136	40
1137	35
1138	47
1139	46
1140	52
1141	53
1142	50
1143	35
1144	33
1145	48
1146	42
1147	48
1148	48
1149	46
1150	48
1151	38
1152	37
1153	60
1154	40
1155	57
1156	48
1157	44
1158	50
1159	48
1160	45
1161	52
1162	51
1163	41
1164	47
1165	32
1166	38
1167	45
1168	47
1169	45
1170	38
1171	42
1172	37
1173	51
1174	54
1175	40
1176	37
1177	42
1178	33
1179	53
1180	34
1181	45
1182	39
1183	36
1184	43
1185	46
1186	35
1187	54
1188	44
1189	50
1190	39
1191	48
1192	31
1193	51
1194	38
1195	57
1196	40
1197	46
1198	42
1199	41
1200	47
1201	35
1202	47
1203	36
1204	31
1205	37
1206	52
1207	36
1208	46
1209	40
1210	35
1211	42
1212	44
1213	45
1214	45
1215	42
1216	32
1217	48
1218	47
1219	34
1220	35
1221	50
1222	38
1223	31
1224	38
1225	40
1226	36
1227	35
1228	50
1229	54
1230	43
1231	60
1232	41
1233	38
1234	51
1235	35
1236	49
1237	43
1238	33
1239	36
1240	38
1241	46
1242	36
1243	36
1244	44
1245	42
1246	49
1247	45
1248	31
1249	28
1250	25
1251	44
1252	42
1253	38
1254	34
1255	53
1256	42
1257	39
1258	32
1259	45
1260	50
1261	49
1262	35
1263	38
1264	37
1265	44
1266	33
1267	44
1268	44
1269	39
1270	41
1271	38
1272	44
1273	43
1274	30
1275	30
1276	42
1277	34
1278	38
1279	38
1280	49
1281	38
1282	43
1283	35
1284	37
1285	36
1286	41
1287	34
1288	37
1289	39
1290	20
1291	23
1292	28
1293	36
1294	25
1295	46
1296	38
1297	38
1298	31
1299	39
1300	34
1301	48
1302	27
1303	49
1304	45
1305	40
1306	29
1307	32
1308	37
1309	44
1310	33
1311	36
1312	38
1313	39
1314	42
1315	29
1316	31
1317	43
1318	31
1319	35
1320	45
1321	37
1322	25
1323	37
1324	36
1325	36
1326	24
1327	31
1328	28
1329	38
1330	38
1331	39
1332	40
1333	33
1334	42
1335	41
1336	48
1337	38
1338	33
1339	32
1340	37
1341	34
1342	40
1343	39
1344	40
1345	46
1346	27
1347	35
1348	33
1349	35
1350	42
1351	29
1352	31
1353	42
1354	38
1355	36
1356	37
1357	27
1358	41
1359	37
1360	24
1361	34
1362	43
1363	40
1364	34
1365	27
1366	35
1367	32
1368	40
1369	30
1370	29
1371	31
1372	26
1373	39
1374	39
1375	34
1376	25
1377	46
1378	32
1379	28
1380	31
1381	33
1382	33
1383	31
1384	37
1385	35
1386	33
1387	24
1388	27
1389	30
1390	29
1391	29
1392	38
1393	28
1394	42
1395	26
1396	45
1397	28
1398	29
1399	28
1400	31
1401	40
1402	32
1403	46
1404	32
1405	33
1406	22
1407	25
1408	34
1409	44
1410	31
1411	31
1412	36
1413	38
1414	31
1415	36
1416	37
1417	26
1418	37
1419	37
1420	37
1421	30
1422	32
1423	41
1424	34
1425	28
1426	35
1427	43
1428	43
1429	29
1430	34
1431	33
1432	37
1433	35
1434	34
1435	38
1436	38
1437	25
1438	30
1439	29
1440	34
1441	33
1442	37
1443	35
1444	33
1445	31
1446	32
1447	32
1448	32
1449	29
1450	28
1451	33
1452	39
1453	34
1454	19
1455	34
1456	25
1457	42
1458	37
1459	24
1460	37
1461	29
1462	44
1463	35
1464	27
1465	14
1466	35
1467	34
1468	37
1469	29
1470	36
1471	29
1472	25
1473	34
1474	38
1475	32
1476	34
1477	37
1478	41
1479	30
1480	29
1481	28
1482	29
1483	38
1484	33
1485	29
1486	27
1487	20
1488	33
1489	25
1490	32
1491	33
1492	23
1493	27
1494	34
1495	25
1496	36
1497	24
1498	24
1499	29
1500	27
1501	27
1502	24
1503	31
1504	23
1505	17
1506	22
1507	28
1508	24
1509	20
1510	13
1511	19
1512	28
1513	13
1514	26
1515	23
1516	20
1517	17
1518	16
1519	21
1520	21
1521	21
1522	13
1523	23
1524	10
1525	14
1526	12
1527	9
1528	11
1529	13
1530	15
1531	16
1532	11
1533	10
1534	14
1535	13
1536	16
1537	11
1538	18
1539	18
1540	16
1541	13
1542	10
1543	13
1544	12
1545	18
1546	8
1547	14
1548	7
1549	5
1550	5
1551	10
1552	7
1553	12
1554	11
1555	8
1556	6
1557	6
1558	9
1559	5
1560	8
1561	6
1562	6
1563	12
1564	5
1565	7
1566	5
1567	8
1568	2
1569	5
1570	4
1571	5
1572	5
1573	5
1574	7
1575	3
1576	8
1577	9
1578	5
1579	5
1580	7
1581	6
1582	5
1583	5
1584	4
1585	7
1586	3
1587	4
1588	5
1589	8
1590	10
1591	5
1592	3
1593	3
1594	9
1595	6
1596	6
1597	8
1598	6
1599	5
1600	4
1601	13
1602	8
1603	9
1604	9
1605	7
1606	13
1607	13
1608	12
1609	18
1610	12
1611	9
1612	12
1613	15
1614	14
1615	17
1616	26
1617	20
1618	22
1619	21
1620	27
1621	29
1622	26
1623	33
1624	29
1625	41
1626	33
1627	33
1628	34
1629	40
1630	53
1631	63
1632	47
1633	48
1634	46
1635	53
1636	50
1637	69
1638	60
1639	61
1640	55
1641	62
1642	55
1643	69
1644	67
1645	51
1646	63
1647	70
1648	68
1649	76
1650	80
1651	76
1652	72
1653	69
1654	80
1655	81
1656	66
1657	66
1658	90
1659	74
1660	68
1661	86
1662	63
1663	69
1664	83
1665	87
1666	88
1667	62
1668	83
1669	77
1670	54
1671	67
1672	64
1673	60
1674	62
1675	55
1676	55
1677	50
1678	53
1679	47
1680	54
1681	49
1682	43
1683	43
1684	44
1685	35
1686	40
1687	34
1688	53
1689	30
1690	31
1691	24
1692	33
1693	32
1694	23
1695	15
1696	14
1697	24
1698	18
1699	24
1700	17
1701	12
1702	15
1703	17
1704	16
1705	16
1706	8
1707	14
1708	7
1709	12
1710	10
1711	7
1712	4
1713	8
1714	8
1715	8
1716	4
1717	1
1718	7
1719	1
1720	3
1721	3
1722	6
1723	5
1724	0
1725	3
1726	1
1727	3
1728	5
1729	2
1730	5
1731	3
1732	0
1733	2
1734	2
1735	1
1736	2
1737	2
1738	1
1739	1
1740	5
1741	1
1742	0
1743	5
1744	3
1745	1
1746	3
1747	2
1748	4
1749	0
1750	1
1751	4
1752	2
1753	1
1754	1
1755	2
1756	2
1757	1
1758	2
1759	1
1760	2
1761	0
1762	0
1763	3
1764	0
1765	2
1766	0
1767	3
1768	2
1769	1
1770	0
1771	1
1772	0
1773	0
1774	0
1775	0
1776	2
1777	2
1778	1
1779	2
1780	3
1781	2
1782	2
1783	2
1784	2
1785	2
1786	3
1787	1
1788	1
1789	6
1790	2
1791	1
1792	2
1793	4
1794	3
1795	2
1796	2
1797	4
1798	1
1799	1
1800	3
1801	2
1802	2
1803	1
1804	2
1805	1
1806	1
1807	1
1808	1
1809	2
1810	3
1811	0
1812	0
1813	3
1814	1
1815	0
1816	2
1817	0
1818	3
1819	2
1820	1
1821	2
1822	0
1823	4
1824	2
1825	0
1826	1
1827	0
1828	1
1829	0
1830	2
1831	2
1832	2
1833	2
1834	3
1835	3
1836	1
1837	0
1838	0
1839	2
1840	2
1841	1
1842	1
1843	1
1844	1
1845	0
1846	1
1847	1
1848	1
1849	1
1850	1
1851	0
1852	0
1853	1
1854	1
1855	4
1856	0
1857	1
1858	1
1859	1
1860	1
1861	4
1862	1
1863	0
1864	1
1865	1
1866	1
1867	0
1868	2
1869	0
1870	0
1871	3
1872	1
1873	2
1874	1
1875	0
1876	0
1877	0
1878	0
1879	0
1880	2
1881	0
1882	0
1883	3
1884	2
1885	2
1886	0
1887	0
1888	2
1889	1
1890	0
1891	0
1892	0
1893	1
1894	2
1895	0
1896	1
1897	0
1898	1
1899	2
1900	0
1901	0
1902	1
1903	0
1904	1
1905	1
1906	0
1907	1
1908	2
1909	2
1910	1
1911	0
1912	1
1913	0
1914	0
1915	1
1916	1
1917	2
1918	1
1919	1
1920	1
1921	1
1922	0
1923	0
1924	0
1925	1
1926	1
1927	0
1928	0
1929	1
1930	2
1931	2
1932	0
1933	2
1934	0
1935	0
1936	2
1937	1
1938	0
1939	1
1940	1
1941	0
1942	2
1943	0
1944	1
1945	0
1946	1
1947	1
1948	2
1949	0
1950	0
1951	0
1952	1
1953	1
1954	1
1955	0
1956	1
1957	1
1958	0
1959	2
1960	1
1961	0
1962	1
1963	0
1964	2
1965	1
1966	1
1967	0
1968	1
1969	2
1970	1
1971	0
1972	0
1973	0
1974	0
1975	0
1976	0
1977	2
1978	1
1979	1
1980	0
1981	1
1982	0
1983	0
1984	0
1985	0
1986	1
1987	1
1988	1
1989	2
1990	1
1991	0
1992	0
1993	0
1994	1
1995	0
1996	1
1997	1
1998	1
1999	1
2000	0
2001	0
2002	1
2003	0
2004	0
2005	0
2006	0
2007	0
2008	0
2009	1
2010	1
2011	0
2012	1
2013	1
2014	2
2015	1
2016	0
2017	0
2018	0
2019	0
2020	0
2021	0
2022	0
2023	0
2024	0
2025	0
2026	0
2027	0
2028	0
2029	0
2030	0
2031	0
2032	0
2033	0
2034	0
2035	0
2036	0
2037	0
2038	0
2039	0
2040	0
2041	0
2042	0
2043	0
2044	0
2045	0
2046	0
2047	0
