0	0
1	0
2	0
3	0
4	0
5	0
6	0
7	0
8	0
9	0
10	9
11	67
12	316
13	1616
14	1357
15	619
16	437
17	424
18	430
19	424
20	456
21	427
22	414
23	402
24	376
25	437
26	450
27	378
28	393
29	409
30	433
31	451
32	417
33	470
34	448
35	427
36	454
37	448
38	437
39	415
40	404
41	444
42	444
43	431
44	414
45	441
46	436
47	415
48	461
49	442
50	426
51	433
52	425
53	387
54	420
55	396
56	429
57	436
58	460
59	394
60	419
61	431
62	456
63	428
64	442
65	414
66	439
67	384
68	439
69	464
70	414
71	419
72	421
73	413
74	417
75	394
76	437
77	409
78	421
79	417
80	458
81	404
82	417
83	448
84	435
85	426
86	418
87	421
88	423
89	403
90	452
91	418
92	410
93	418
94	398
95	422
96	427
97	407
98	427
99	457
100	432
101	401
102	412
103	428
104	430
105	410
106	418
107	422
108	409
109	390
110	389
111	447
112	439
113	407
114	432
115	444
116	460
117	430
118	425
119	439
120	419
121	420
122	432
123	435
124	429
125	426
126	459
127	448
128	430
129	420
130	436
131	442
132	451
133	401
134	461
135	454
136	429
137	412
138	424
139	422
140	498
141	475
142	474
143	493
144	478
145	479
146	484
147	486
148	511
149	495
150	575
151	564
152	554
153	535
154	581
155	569
156	606
157	535
158	562
159	571
160	573
161	552
162	608
163	575
164	542
165	539
166	545
167	588
168	554
169	579
170	535
171	530
172	550
173	568
174	502
175	525
176	520
177	532
178	550
179	527
180	493
181	520
182	554
183	579
184	523
185	497
186	491
187	475
188	476
189	502
190	564
191	520
192	505
193	524
194	518
195	465
196	485
197	495
198	500
199	471
200	512
201	494
202	458
203	465
204	492
205	515
206	513
207	510
208	512
209	482
210	507
211	521
212	516
213	508
214	505
215	484
216	542
217	523
218	462
219	483
220	505
221	483
222	490
223	453
224	454
225	446
226	454
227	472
228	502
229	465
230	500
231	498
232	465
233	481
234	453
235	449
236	450
237	496
238	450
239	497
240	456
241	524
242	460
243	447
244	495
245	490
246	415
247	463
248	453
249	402
250	475
251	437
252	422
253	450
254	425
255	421
256	450
257	477
258	442
259	406
260	430
261	445
262	457
263	411
264	411
265	429
266	441
267	465
268	442
269	445
270	411
271	417
272	429
273	410
274	427
275	449
276	431
277	393
278	447
279	434
280	429
281	411
282	432
283	485
284	415
285	413
286	423
287	441
288	407
289	445
290	435
291	466
292	447
293	384
294	448
295	419
296	421
297	420
298	402
299	416
300	433
301	423
302	435
303	432
304	397
305	412
306	431
307	427
308	436
309	419
310	402
311	438
312	437
313	423
314	468
315	445
316	459
317	452
318	467
319	456
320	392
321	408
322	406
323	421
324	426
325	366
326	433
327	436
328	485
329	444
330	418
331	386
332	435
333	417
334	403
335	428
336	396
337	434
338	429
339	398
340	425
341	399
342	415
343	401
344	416
345	454
346	404
347	428
348	434
349	399
350	423
351	397
352	452
353	433
354	409
355	396
356	411
357	410
358	391
359	454
360	408
361	410
362	408
363	441
364	415
365	379
366	439
367	409
368	436
369	382
370	433
371	418
372	435
373	407
374	396
375	431
376	386
377	411
378	415
379	433
380	455
381	406
382	397
383	429
384	402
385	424
386	431
387	388
388	461
389	441
390	430
391	429
392	417
393	439
394	392
395	413
396	393
397	369
398	418
399	398
400	419
401	423
402	395
403	448
404	454
405	447
406	420
407	443
408	438
409	383
410	434
411	438
412	438
413	365
414	406
415	406
416	434
417	429
418	423
419	405
420	421
421	443
422	420
423	418
424	406
425	390
426	451
427	442
428	427
429	463
430	442
431	446
432	427
433	404
434	432
435	431
436	397
437	402
438	440
439	428
440	449
441	424
442	464
443	458
444	456
445	438
446	412
447	455
448	440
449	441
450	442
451	468
452	428
453	416
454	406
455	432
456	448
457	438
458	441
459	439
460	442
461	446
462	442
463	433
464	452
465	420
466	403
467	431
468	447
469	418
470	439
471	400
472	414
473	420
474	419
475	462
476	404
477	430
478	458
479	458
480	443
481	473
482	444
483	406
484	447
485	463
486	445
487	446
488	417
489	387
490	415
491	412
492	440
493	433
494	452
495	443
496	420
497	460
498	457
499	436
500	463
501	480
502	480
503	437
504	440
505	448
506	456
507	440
508	464
509	454
510	495
511	453
512	464
513	409
514	414
515	442
516	448
517	441
518	467
519	440
520	471
521	468
522	439
523	479
524	446
525	438
526	482
527	472
528	486
529	492
530	484
531	461
532	472
533	484
534	477
535	472
536	510
537	474
538	448
539	475
540	486
541	490
542	478
543	481
544	504
545	451
546	500
547	497
548	480
549	507
550	526
551	533
552	484
553	504
554	495
555	473
556	495
557	491
558	488
559	477
560	492
561	528
562	476
563	494
564	484
565	492
566	483
567	470
568	502
569	523
570	456
571	538
572	524
573	480
574	484
575	492
576	510
577	475
578	455
579	467
580	448
581	475
582	511
583	519
584	491
585	541
586	517
587	508
588	523
589	495
590	513
591	506
592	498
593	506
594	562
595	470
596	527
597	505
598	497
599	504
600	468
601	498
602	492
603	487
604	536
605	498
606	487
607	521
608	480
609	516
610	466
611	522
612	486
613	489
614	487
615	484
616	468
617	486
618	466
619	476
620	557
621	493
622	440
623	488
624	449
625	441
626	438
627	451
628	417
629	444
630	441
631	429
632	432
633	422
634	416
635	380
636	404
637	379
638	403
639	388
640	401
641	362
642	356
643	365
644	383
645	362
646	363
647	354
648	341
649	339
650	359
651	338
652	359
653	360
654	363
655	334
656	376
657	337
658	353
659	324
660	337
661	315
662	319
663	326
664	341
665	307
666	327
667	302
668	326
669	313
670	327
671	327
672	301
673	301
674	291
675	315
676	311
677	299
678	289
679	306
680	287
681	278
682	293
683	289
684	314
685	292
686	286
687	290
688	307
689	304
690	299
691	299
692	294
693	295
694	322
695	298
696	284
697	305
698	280
699	278
700	299
701	278
702	307
703	271
704	274
705	281
706	288
707	291
708	285
709	284
710	283
711	316
712	263
713	255
714	278
715	289
716	265
717	234
718	297
719	256
720	276
721	244
722	261
723	259
724	281
725	250
726	269
727	283
728	262
729	282
730	285
731	322
732	287
733	313
734	321
735	343
736	389
737	397
738	392
739	444
740	459
741	454
742	519
743	548
744	606
745	687
746	760
747	688
748	817
749	869
750	945
751	1021
752	1027
753	1145
754	1239
755	1318
756	1328
757	1446
758	1460
759	1587
760	1666
761	1694
762	1787
763	1896
764	1841
765	1963
766	1936
767	2017
768	2026
769	1948
770	2056
771	2052
772	2070
773	2094
774	1954
775	2030
776	1963
777	1966
778	1921
779	1901
780	1740
781	1659
782	1557
783	1560
784	1518
785	1389
786	1362
787	1298
788	1202
789	1065
790	1067
791	970
792	980
793	804
794	813
795	757
796	641
797	582
798	583
799	534
800	473
801	428
802	366
803	381
804	313
805	291
806	256
807	213
808	233
809	201
810	179
811	173
812	150
813	138
814	144
815	143
816	130
817	137
818	103
819	101
820	107
821	116
822	86
823	126
824	105
825	122
826	105
827	105
828	114
829	131
830	125
831	151
832	147
833	155
834	188
835	182
836	224
837	216
838	250
839	289
840	279
841	337
842	366
843	351
844	413
845	453
846	459
847	528
848	568
849	601
850	660
851	659
852	731
853	785
854	871
855	975
856	958
857	1042
858	1103
859	1097
860	1187
861	1213
862	1260
863	1332
864	1464
865	1477
866	1486
867	1452
868	1548
869	1565
870	1605
871	1619
872	1695
873	1666
874	1657
875	1634
876	1600
877	1577
878	1627
879	1569
880	1552
881	1481
882	1483
883	1379
884	1335
885	1246
886	1299
887	1233
888	1201
889	1148
890	1141
891	1090
892	987
893	989
894	893
895	820
896	743
897	694
898	648
899	620
900	560
901	544
902	510
903	462
904	433
905	363
906	352
907	364
908	306
909	296
910	288
911	230
912	231
913	227
914	206
915	155
916	164
917	147
918	166
919	158
920	156
921	131
922	128
923	114
924	116
925	95
926	96
927	111
928	102
929	87
930	96
931	100
932	86
933	93
934	91
935	101
936	85
937	97
938	96
939	101
940	87
941	86
942	82
943	74
944	94
945	83
946	85
947	85
948	89
949	95
950	71
951	81
952	70
953	92
954	99
955	88
956	77
957	86
958	84
959	83
960	86
961	70
962	88
963	78
964	78
965	75
966	92
967	96
968	88
969	70
970	71
971	82
972	87
973	85
974	82
975	76
976	71
977	96
978	86
979	78
980	85
981	68
982	73
983	81
984	61
985	79
986	70
987	73
988	65
989	77
990	76
991	66
992	59
993	66
994	65
995	61
996	66
997	72
998	71
999	77
1000	91
1001	85
1002	58
1003	68
1004	66
1005	69
1006	83
1007	58
1008	72
1009	68
1010	78
1011	70
1012	75
1013	80
1014	71
1015	69
1016	50
1017	62
1018	79
1019	57
1020	66
1021	72
1022	73
1023	82
1024	70
1025	70
1026	78
1027	65
1028	67
1029	69
1030	74
1031	69
1032	73
1033	90
1034	75
1035	74
1036	57
1037	79
1038	71
1039	86
1040	70
1041	69
1042	65
1043	71
1044	62
1045	57
1046	64
1047	75
1048	61
1049	62
1050	66
1051	77
1052	70
1053	67
1054	71
1055	64
1056	56
1057	63
1058	72
1059	50
1060	64
1061	76
1062	58
1063	57
1064	70
1065	69
1066	76
1067	63
1068	76
1069	76
1070	79
1071	64
1072	62
1073	71
1074	54
1075	63
1076	62
1077	68
1078	63
1079	77
1080	59
1081	60
1082	63
1083	58
1084	56
1085	59
1086	73
1087	62
1088	56
1089	58
1090	56
1091	59
1092	57
1093	56
1094	68
1095	66
1096	63
1097	70
1098	55
1099	66
1100	68
1101	51
1102	57
1103	53
1104	50
1105	63
1106	58
1107	76
1108	59
1109	49
1110	64
1111	61
1112	54
1113	57
1114	66
1115	62
1116	52
1117	51
1118	40
1119	61
1120	50
1121	41
1122	61
1123	44
1124	58
1125	56
1126	63
1127	71
1128	47
1129	55
1130	61
1131	47
1132	59
1133	56
1134	45
1135	60
1136	59
1137	59
1138	54
1139	66
1140	62
1141	46
1142	46
1143	48
1144	52
1145	55
1146	50
1147	61
1148	57
1149	57
1150	36
1151	59
1152	59
1153	48
1154	55
1155	52
1156	53
1157	49
1158	38
1159	57
1160	59
1161	45
1162	56
1163	56
1164	67
1165	51
1166	47
1167	44
1168	47
1169	54
1170	54
1171	45
1172	55
1173	52
1174	48
1175	42
1176	58
1177	45
1178	53
1179	50
1180	36
1181	52
1182	46
1183	44
1184	43
1185	42
1186	54
1187	55
1188	54
1189	50
1190	55
1191	49
1192	47
1193	46
1194	45
1195	50
1196	52
1197	42
1198	49
1199	55
1200	56
1201	41
1202	65
1203	41
1204	54
1205	51
1206	53
1207	52
1208	57
1209	48
1210	51
1211	41
1212	52
1213	47
1214	50
1215	43
1216	50
1217	49
1218	44
1219	47
1220	47
1221	56
1222	43
1223	47
1224	61
1225	43
1226	43
1227	37
1228	37
1229	54
1230	47
1231	31
1232	46
1233	52
1234	52
1235	48
1236	44
1237	48
1238	56
1239	40
1240	36
1241	42
1242	47
1243	53
1244	52
1245	39
1246	42
1247	49
1248	33
1249	48
1250	44
1251	42
1252	45
1253	36
1254	39
1255	46
1256	48
1257	36
1258	42
1259	39
1260	32
1261	55
1262	41
1263	48
1264	33
1265	38
1266	41
1267	49
1268	43
1269	31
1270	43
1271	47
1272	40
1273	43
1274	40
1275	41
1276	33
1277	50
1278	52
1279	51
1280	49
1281	43
1282	41
1283	40
1284	46
1285	46
1286	36
1287	50
1288	47
1289	39
1290	40
1291	33
1292	32
1293	34
1294	44
1295	36
1296	53
1297	41
1298	44
1299	38
1300	39
1301	36
1302	47
1303	29
1304	49
1305	51
1306	44
1307	43
1308	43
1309	43
1310	44
1311	55
1312	54
1313	54
1314	40
1315	34
1316	41
1317	38
1318	46
1319	39
1320	36
1321	37
1322	40
1323	47
1324	36
1325	40
1326	45
1327	42
1328	42
1329	38
1330	50
1331	40
1332	40
1333	39
1334	52
1335	49
1336	54
1337	48
1338	49
1339	40
1340	42
1341	42
1342	44
1343	36
1344	50
1345	47
1346	53
1347	51
1348	33
1349	43
1350	53
1351	47
1352	47
1353	36
1354	34
1355	38
1356	47
1357	28
1358	39
1359	47
1360	47
1361	42
1362	40
1363	44
1364	56
1365	44
1366	43
1367	38
1368	39
1369	52
1370	48
1371	41
1372	42
1373	41
1374	43
1375	44
1376	40
1377	32
1378	45
1379	28
1380	49
1381	38
1382	28
1383	35
1384	29
1385	48
1386	53
1387	38
1388	36
1389	31
1390	37
1391	44
1392	32
1393	44
1394	43
1395	47
1396	35
1397	31
1398	40
1399	44
1400	41
1401	45
1402	40
1403	41
1404	35
1405	38
1406	37
1407	37
1408	36
1409	39
1410	34
1411	29
1412	32
1413	33
1414	35
1415	47
1416	39
1417	38
1418	41
1419	38
1420	33
1421	39
1422	31
1423	36
1424	39
1425	48
1426	39
1427	38
1428	27
1429	45
1430	30
1431	21
1432	50
1433	55
1434	37
1435	50
1436	39
1437	37
1438	51
1439	49
1440	44
1441	39
1442	31
1443	36
1444	49
1445	44
1446	38
1447	36
1448	51
1449	36
1450	42
1451	45
1452	38
1453	36
1454	23
1455	34
1456	42
1457	39
1458	36
1459	40
1460	53
1461	52
1462	44
1463	36
1464	42
1465	36
1466	35
1467	38
1468	32
1469	30
1470	34
1471	48
1472	43
1473	42
1474	34
1475	37
1476	41
1477	43
1478	42
1479	40
1480	36
1481	42
1482	29
1483	44
1484	36
1485	40
1486	52
1487	39
1488	47
1489	43
1490	38
1491	41
1492	31
1493	37
1494	31
1495	26
1496	34
1497	31
1498	32
1499	27
1500	45
1501	33
1502	30
1503	34
1504	36
1505	34
1506	32
1507	26
1508	39
1509	31
1510	36
1511	25
1512	29
1513	21
1514	35
1515	29
1516	23
1517	20
1518	28
1519	20
1520	20
1521	30
1522	30
1523	24
1524	24
1525	19
1526	24
1527	21
1528	15
1529	18
1530	11
1531	23
1532	17
1533	20
1534	21
1535	19
1536	17
1537	18
1538	22
1539	18
1540	12
1541	11
1542	14
1543	16
1544	12
1545	12
1546	18
1547	12
1548	19
1549	17
1550	14
1551	30
1552	16
1553	18
1554	15
1555	7
1556	11
1557	16
1558	7
1559	16
1560	15
1561	10
1562	15
1563	12
1564	13
1565	12
1566	12
1567	17
1568	13
1569	13
1570	12
1571	14
1572	12
1573	10
1574	9
1575	8
1576	10
1577	12
1578	8
1579	7
1580	10
1581	9
1582	8
1583	8
1584	11
1585	12
1586	6
1587	12
1588	9
1589	12
1590	8
1591	8
1592	9
1593	12
1594	11
1595	12
1596	16
1597	12
1598	15
1599	18
1600	15
1601	15
1602	12
1603	14
1604	17
1605	16
1606	14
1607	13
1608	11
1609	20
1610	20
1611	22
1612	22
1613	23
1614	25
1615	17
1616	19
1617	32
1618	22
1619	27
1620	33
1621	36
1622	30
1623	32
1624	25
1625	45
1626	39
1627	41
1628	57
1629	51
1630	56
1631	59
1632	56
1633	46
1634	46
1635	59
1636	48
1637	48
1638	62
1639	65
1640	61
1641	76
1642	76
1643	86
1644	73
1645	65
1646	62
1647	88
1648	72
1649	82
1650	85
1651	82
1652	76
1653	75
1654	70
1655	89
1656	94
1657	104
1658	85
1659	88
1660	68
1661	78
1662	76
1663	75
1664	67
1665	66
1666	82
1667	84
1668	81
1669	84
1670	66
1671	73
1672	75
1673	62
1674	65
1675	67
1676	66
1677	68
1678	52
1679	56
1680	73
1681	57
1682	59
1683	64
1684	26
1685	42
1686	39
1687	37
1688	38
1689	54
1690	31
1691	26
1692	41
1693	26
1694	33
1695	36
1696	19
1697	25
1698	27
1699	17
1700	21
1701	17
1702	21
1703	16
1704	19
1705	18
1706	20
1707	18
1708	8
1709	13
1710	18
1711	16
1712	15
1713	13
1714	8
1715	13
1716	10
1717	11
1718	9
1719	13
1720	5
1721	5
1722	7
1723	0
1724	5
1725	6
1726	5
1727	10
1728	1
1729	7
1730	7
1731	8
1732	3
1733	4
1734	3
1735	9
1736	5
1737	7
1738	8
1739	3
1740	2
1741	7
1742	6
1743	8
1744	4
1745	1
1746	4
1747	3
1748	1
1749	7
1750	3
1751	2
1752	3
1753	6
1754	6
1755	6
1756	1
1757	3
1758	4
1759	3
1760	4
1761	4
1762	3
1763	3
1764	2
1765	2
1766	7
1767	0
1768	4
1769	1
1770	5
1771	9
1772	7
1773	4
1774	4
1775	7
1776	2
1777	5
1778	4
1779	1
1780	1
1781	3
1782	3
1783	4
1784	5
1785	5
1786	1
1787	5
1788	0
1789	6
1790	0
1791	2
1792	6
1793	5
1794	0
1795	5
1796	4
1797	5
1798	2
1799	5
1800	2
1801	3
1802	0
1803	2
1804	2
1805	2
1806	3
1807	4
1808	3
1809	6
1810	3
1811	1
1812	0
1813	2
1814	4
1815	4
1816	3
1817	6
1818	3
1819	2
1820	1
1821	5
1822	3
1823	5
1824	0
1825	2
1826	1
1827	2
1828	4
1829	5
1830	2
1831	4
1832	1
1833	6
1834	4
1835	3
1836	3
1837	5
1838	4
1839	2
1840	5
1841	2
1842	2
1843	5
1844	2
1845	3
1846	0
1847	1
1848	1
1849	4
1850	0
1851	2
1852	3
1853	3
1854	2
1855	1
1856	3
1857	5
1858	3
1859	4
1860	10
1861	3
1862	5
1863	0
1864	0
1865	3
1866	0
1867	2
1868	1
1869	2
1870	4
1871	4
1872	2
1873	3
1874	1
1875	5
1876	3
1877	0
1878	0
1879	0
1880	4
1881	1
1882	2
1883	1
1884	3
1885	0
1886	4
1887	0
1888	1
1889	0
1890	5
1891	0
1892	1
1893	3
1894	3
1895	0
1896	1
1897	3
1898	1
1899	4
1900	1
1901	2
1902	2
1903	1
1904	0
1905	1
1906	2
1907	1
1908	1
1909	3
1910	2
1911	2
1912	1
1913	2
1914	2
1915	3
1916	1
1917	3
1918	1
1919	1
1920	3
1921	1
1922	2
1923	0
1924	2
1925	1
1926	3
1927	0
1928	1
1929	6
1930	0
1931	0
1932	1
1933	2
1934	1
1935	1
1936	6
1937	4
1938	0
1939	1
1940	0
1941	1
1942	0
1943	2
1944	0
1945	2
1946	5
1947	1
1948	2
1949	0
1950	4
1951	1
1952	2
1953	5
1954	1
1955	2
1956	2
1957	3
1958	0
1959	1
1960	0
1961	1
1962	0
1963	2
1964	0
1965	1
1966	2
1967	1
1968	2
1969	0
1970	1
1971	1
1972	1
1973	1
1974	3
1975	1
1976	1
1977	1
1978	2
1979	0
1980	0
1981	1
1982	1
1983	3
1984	0
1985	1
1986	2
1987	1
1988	4
1989	1
1990	2
1991	1
1992	0
1993	0
1994	1
1995	1
1996	0
1997	1
1998	0
1999	2
2000	0
2001	1
2002	0
2003	1
2004	1
2005	1
2006	2
2007	0
2008	2
2009	3
2010	4
2011	1
2012	1
2013	2
2014	2
2015	0
2016	0
2017	0
2018	0
2019	0
2020	0
2021	0
2022	0
2023	0
2024	0
2025	0
2026	0
2027	0
2028	0
2029	0
2030	0
2031	0
2032	0
2033	0
2034	0
2035	0
2036	0
2037	0
2038	0
2039	0
2040	0
2041	0
2042	0
2043	0
2044	0
2045	0
2046	0
2047	0
