0	0
1	0
2	0
3	0
4	0
5	0
6	0
7	0
8	0
9	1
10	19
11	171
12	1275
13	4542
14	3471
15	1708
16	887
17	547
18	546
19	472
20	493
21	464
22	474
23	501
24	488
25	446
26	481
27	482
28	451
29	491
30	461
31	437
32	477
33	459
34	432
35	460
36	450
37	452
38	441
39	444
40	463
41	450
42	459
43	446
44	473
45	432
46	466
47	436
48	449
49	453
50	418
51	458
52	452
53	472
54	470
55	412
56	464
57	473
58	485
59	464
60	430
61	503
62	471
63	495
64	419
65	479
66	461
67	427
68	442
69	474
70	447
71	441
72	500
73	442
74	416
75	441
76	455
77	437
78	425
79	432
80	441
81	413
82	417
83	484
84	446
85	421
86	456
87	407
88	456
89	446
90	470
91	430
92	452
93	441
94	416
95	436
96	444
97	465
98	462
99	508
100	473
101	454
102	429
103	442
104	436
105	415
106	451
107	455
108	419
109	452
110	485
111	462
112	475
113	477
114	473
115	435
116	484
117	439
118	450
119	452
120	414
121	452
122	412
123	461
124	439
125	451
126	481
127	467
128	460
129	462
130	405
131	442
132	506
133	468
134	453
135	494
136	450
137	474
138	502
139	483
140	489
141	491
142	499
143	468
144	490
145	537
146	525
147	541
148	487
149	519
150	509
151	546
152	573
153	569
154	581
155	549
156	626
157	558
158	604
159	622
160	584
161	612
162	609
163	638
164	584
165	593
166	580
167	571
168	610
169	586
170	571
171	591
172	587
173	567
174	558
175	577
176	582
177	561
178	570
179	554
180	539
181	562
182	580
183	537
184	546
185	585
186	576
187	542
188	554
189	531
190	540
191	518
192	526
193	550
194	494
195	542
196	496
197	527
198	541
199	569
200	544
201	528
202	522
203	476
204	502
205	514
206	496
207	525
208	536
209	567
210	524
211	531
212	510
213	512
214	519
215	474
216	482
217	521
218	519
219	503
220	512
221	503
222	532
223	514
224	511
225	512
226	509
227	480
228	509
229	490
230	512
231	476
232	495
233	481
234	465
235	479
236	467
237	499
238	490
239	507
240	522
241	511
242	458
243	511
244	458
245	459
246	482
247	460
248	497
249	452
250	460
251	418
252	469
253	484
254	528
255	487
256	490
257	464
258	464
259	473
260	458
261	442
262	473
263	456
264	448
265	452
266	479
267	484
268	453
269	437
270	437
271	501
272	451
273	457
274	447
275	478
276	494
277	450
278	455
279	439
280	464
281	489
282	458
283	474
284	424
285	451
286	459
287	465
288	464
289	466
290	452
291	428
292	477
293	433
294	488
295	451
296	437
297	440
298	437
299	474
300	450
301	474
302	443
303	439
304	472
305	437
306	446
307	442
308	495
309	467
310	467
311	450
312	440
313	442
314	439
315	475
316	487
317	454
318	432
319	415
320	456
321	456
322	448
323	438
324	458
325	442
326	424
327	470
328	454
329	469
330	451
331	468
332	446
333	469
334	432
335	484
336	455
337	438
338	438
339	475
340	420
341	463
342	450
343	456
344	410
345	456
346	468
347	418
348	428
349	430
350	451
351	444
352	436
353	470
354	449
355	420
356	474
357	436
358	449
359	451
360	445
361	416
362	418
363	408
364	464
365	428
366	421
367	424
368	445
369	399
370	448
371	478
372	461
373	448
374	448
375	421
376	458
377	416
378	441
379	434
380	423
381	425
382	448
383	443
384	459
385	483
386	397
387	453
388	454
389	449
390	443
391	456
392	423
393	430
394	457
395	455
396	436
397	463
398	453
399	439
400	448
401	466
402	431
403	437
404	476
405	440
406	447
407	436
408	457
409	429
410	438
411	445
412	442
413	428
414	453
415	418
416	454
417	480
418	424
419	441
420	480
421	437
422	448
423	464
424	450
425	470
426	483
427	494
428	426
429	424
430	434
431	463
432	452
433	458
434	423
435	466
436	444
437	469
438	487
439	463
440	443
441	431
442	446
443	482
444	513
445	476
446	469
447	490
448	503
449	472
450	444
451	489
452	470
453	469
454	469
455	482
456	446
457	448
458	469
459	455
460	446
461	437
462	468
463	460
464	463
465	484
466	478
467	472
468	433
469	461
470	457
471	452
472	477
473	484
474	451
475	480
476	489
477	479
478	428
479	445
480	455
481	473
482	457
483	485
484	480
485	499
486	527
487	458
488	468
489	490
490	483
491	478
492	511
493	485
494	446
495	480
496	495
497	474
498	486
499	512
500	461
501	488
502	465
503	491
504	504
505	504
506	488
507	500
508	513
509	461
510	481
511	512
512	490
513	465
514	531
515	454
516	467
517	515
518	480
519	513
520	455
521	486
522	474
523	527
524	515
525	481
526	505
527	522
528	543
529	499
530	478
531	481
532	494
533	471
534	518
535	510
536	509
537	539
538	513
539	520
540	462
541	497
542	527
543	506
544	507
545	511
546	552
547	494
548	521
549	579
550	556
551	568
552	512
553	495
554	528
555	458
556	485
557	575
558	551
559	524
560	520
561	528
562	516
563	503
564	541
565	535
566	512
567	579
568	532
569	512
570	489
571	527
572	520
573	532
574	513
575	488
576	517
577	501
578	531
579	519
580	526
581	506
582	507
583	516
584	525
585	547
586	547
587	537
588	518
589	525
590	548
591	533
592	543
593	507
594	505
595	525
596	568
597	526
598	555
599	537
600	499
601	552
602	521
603	548
604	543
605	503
606	547
607	511
608	493
609	559
610	520
611	527
612	523
613	542
614	518
615	550
616	551
617	515
618	532
619	522
620	496
621	486
622	474
623	512
624	486
625	482
626	492
627	469
628	465
629	443
630	452
631	439
632	427
633	453
634	441
635	444
636	433
637	392
638	404
639	412
640	406
641	409
642	372
643	415
644	390
645	385
646	382
647	383
648	367
649	345
650	356
651	340
652	405
653	334
654	360
655	350
656	337
657	330
658	384
659	361
660	328
661	330
662	346
663	317
664	333
665	324
666	344
667	355
668	339
669	337
670	311
671	342
672	318
673	342
674	317
675	321
676	307
677	329
678	302
679	343
680	316
681	293
682	317
683	344
684	342
685	292
686	323
687	316
688	311
689	330
690	322
691	334
692	311
693	379
694	323
695	337
696	293
697	323
698	335
699	272
700	292
701	325
702	324
703	318
704	332
705	313
706	307
707	297
708	337
709	294
710	275
711	269
712	294
713	292
714	298
715	265
716	275
717	270
718	268
719	283
720	280
721	274
722	262
723	308
724	297
725	271
726	280
727	315
728	288
729	318
730	306
731	330
732	361
733	390
734	378
735	419
736	400
737	451
738	478
739	522
740	561
741	588
742	641
743	678
744	729
745	799
746	841
747	906
748	956
749	1038
750	1115
751	1205
752	1306
753	1427
754	1385
755	1538
756	1518
757	1662
758	1681
759	1730
760	1843
761	1944
762	1983
763	2075
764	2038
765	2092
766	2119
767	2199
768	2115
769	2161
770	2129
771	2186
772	2169
773	2080
774	2033
775	2026
776	1967
777	1951
778	1884
779	1795
780	1806
781	1686
782	1530
783	1502
784	1448
785	1369
786	1252
787	1181
788	1047
789	1055
790	915
791	886
792	832
793	747
794	707
795	653
796	622
797	543
798	488
799	417
800	408
801	371
802	339
803	281
804	272
805	254
806	256
807	247
808	189
809	167
810	191
811	161
812	147
813	134
814	126
815	142
816	131
817	123
818	132
819	121
820	109
821	112
822	111
823	124
824	160
825	113
826	147
827	116
828	146
829	151
830	163
831	164
832	181
833	205
834	232
835	265
836	279
837	303
838	284
839	345
840	376
841	381
842	419
843	449
844	499
845	594
846	579
847	665
848	682
849	786
850	855
851	882
852	869
853	994
854	1051
855	1084
856	1153
857	1206
858	1313
859	1307
860	1366
861	1427
862	1500
863	1563
864	1584
865	1687
866	1561
867	1680
868	1663
869	1750
870	1744
871	1771
872	1736
873	1746
874	1785
875	1694
876	1729
877	1694
878	1629
879	1578
880	1566
881	1507
882	1530
883	1340
884	1360
885	1276
886	1262
887	1212
888	1184
889	1105
890	1035
891	987
892	945
893	853
894	753
895	747
896	643
897	650
898	573
899	554
900	522
901	468
902	406
903	410
904	384
905	340
906	300
907	259
908	284
909	271
910	247
911	203
912	200
913	185
914	160
915	142
916	157
917	154
918	128
919	138
920	130
921	120
922	105
923	86
924	99
925	99
926	107
927	90
928	115
929	106
930	81
931	91
932	101
933	93
934	89
935	88
936	87
937	97
938	76
939	97
940	86
941	98
942	87
943	93
944	95
945	92
946	90
947	91
948	96
949	84
950	69
951	76
952	75
953	74
954	75
955	91
956	121
957	88
958	80
959	83
960	90
961	83
962	69
963	87
964	81
965	77
966	91
967	82
968	81
969	81
970	82
971	81
972	70
973	84
974	73
975	82
976	85
977	75
978	86
979	76
980	97
981	81
982	89
983	74
984	77
985	93
986	96
987	66
988	91
989	73
990	81
991	88
992	72
993	68
994	84
995	95
996	90
997	88
998	80
999	79
1000	71
1001	77
1002	92
1003	88
1004	76
1005	72
1006	75
1007	78
1008	80
1009	71
1010	88
1011	86
1012	68
1013	82
1014	90
1015	69
1016	64
1017	65
1018	62
1019	76
1020	77
1021	77
1022	83
1023	78
1024	82
1025	76
1026	73
1027	76
1028	75
1029	80
1030	72
1031	75
1032	76
1033	72
1034	85
1035	79
1036	75
1037	72
1038	68
1039	70
1040	64
1041	68
1042	72
1043	66
1044	92
1045	91
1046	100
1047	77
1048	65
1049	82
1050	66
1051	79
1052	71
1053	61
1054	81
1055	70
1056	71
1057	60
1058	73
1059	65
1060	56
1061	74
1062	72
1063	94
1064	82
1065	66
1066	67
1067	77
1068	94
1069	60
1070	65
1071	68
1072	76
1073	73
1074	69
1075	66
1076	46
1077	82
1078	64
1079	72
1080	76
1081	68
1082	72
1083	75
1084	69
1085	69
1086	54
1087	61
1088	64
1089	58
1090	64
1091	59
1092	75
1093	65
1094	85
1095	65
1096	75
1097	56
1098	66
1099	53
1100	75
1101	67
1102	58
1103	65
1104	59
1105	50
1106	69
1107	58
1108	72
1109	62
1110	73
1111	57
1112	47
1113	65
1114	60
1115	60
1116	63
1117	50
1118	54
1119	63
1120	61
1121	55
1122	52
1123	67
1124	67
1125	58
1126	52
1127	68
1128	69
1129	65
1130	55
1131	51
1132	54
1133	42
1134	55
1135	58
1136	70
1137	61
1138	63
1139	49
1140	53
1141	63
1142	55
1143	67
1144	66
1145	57
1146	67
1147	53
1148	65
1149	54
1150	52
1151	46
1152	47
1153	49
1154	62
1155	61
1156	62
1157	76
1158	48
1159	43
1160	50
1161	55
1162	44
1163	54
1164	39
1165	44
1166	53
1167	56
1168	52
1169	48
1170	58
1171	64
1172	48
1173	42
1174	58
1175	58
1176	57
1177	50
1178	52
1179	55
1180	51
1181	46
1182	52
1183	53
1184	39
1185	60
1186	40
1187	57
1188	57
1189	43
1190	42
1191	45
1192	51
1193	39
1194	47
1195	55
1196	62
1197	48
1198	55
1199	48
1200	49
1201	52
1202	41
1203	47
1204	48
1205	48
1206	55
1207	46
1208	53
1209	45
1210	44
1211	58
1212	54
1213	38
1214	51
1215	51
1216	55
1217	40
1218	53
1219	55
1220	38
1221	38
1222	45
1223	48
1224	37
1225	50
1226	55
1227	41
1228	37
1229	42
1230	47
1231	37
1232	35
1233	60
1234	54
1235	51
1236	45
1237	51
1238	43
1239	53
1240	44
1241	49
1242	55
1243	57
1244	47
1245	51
1246	61
1247	45
1248	47
1249	42
1250	36
1251	54
1252	55
1253	43
1254	48
1255	41
1256	55
1257	43
1258	50
1259	42
1260	44
1261	32
1262	46
1263	34
1264	54
1265	54
1266	40
1267	44
1268	49
1269	36
1270	37
1271	53
1272	43
1273	35
1274	34
1275	46
1276	50
1277	36
1278	50
1279	48
1280	45
1281	36
1282	56
1283	43
1284	54
1285	40
1286	49
1287	43
1288	39
1289	56
1290	44
1291	37
1292	38
1293	41
1294	50
1295	49
1296	58
1297	54
1298	52
1299	36
1300	51
1301	33
1302	43
1303	48
1304	42
1305	56
1306	41
1307	44
1308	54
1309	48
1310	51
1311	53
1312	59
1313	33
1314	43
1315	39
1316	53
1317	30
1318	48
1319	43
1320	40
1321	51
1322	44
1323	42
1324	36
1325	47
1326	45
1327	43
1328	41
1329	39
1330	42
1331	36
1332	44
1333	39
1334	48
1335	49
1336	42
1337	49
1338	46
1339	42
1340	46
1341	40
1342	39
1343	33
1344	42
1345	30
1346	44
1347	31
1348	40
1349	43
1350	44
1351	34
1352	34
1353	50
1354	44
1355	27
1356	37
1357	37
1358	40
1359	40
1360	47
1361	42
1362	49
1363	53
1364	35
1365	32
1366	39
1367	46
1368	45
1369	42
1370	49
1371	43
1372	34
1373	43
1374	35
1375	39
1376	38
1377	45
1378	39
1379	46
1380	44
1381	39
1382	37
1383	38
1384	33
1385	40
1386	42
1387	44
1388	45
1389	32
1390	30
1391	40
1392	44
1393	36
1394	31
1395	43
1396	45
1397	47
1398	44
1399	50
1400	39
1401	46
1402	37
1403	35
1404	33
1405	46
1406	53
1407	43
1408	49
1409	45
1410	33
1411	44
1412	42
1413	49
1414	41
1415	38
1416	40
1417	43
1418	32
1419	46
1420	30
1421	53
1422	47
1423	39
1424	43
1425	46
1426	49
1427	39
1428	29
1429	44
1430	37
1431	41
1432	36
1433	44
1434	39
1435	34
1436	50
1437	39
1438	38
1439	33
1440	42
1441	42
1442	42
1443	46
1444	33
1445	48
1446	41
1447	37
1448	48
1449	38
1450	45
1451	42
1452	44
1453	40
1454	33
1455	51
1456	39
1457	47
1458	37
1459	42
1460	45
1461	37
1462	37
1463	35
1464	42
1465	47
1466	44
1467	31
1468	35
1469	40
1470	41
1471	29
1472	28
1473	30
1474	40
1475	37
1476	45
1477	41
1478	35
1479	42
1480	46
1481	44
1482	46
1483	45
1484	36
1485	34
1486	35
1487	33
1488	42
1489	30
1490	39
1491	38
1492	34
1493	35
1494	32
1495	35
1496	36
1497	24
1498	21
1499	30
1500	38
1501	35
1502	33
1503	24
1504	26
1505	38
1506	36
1507	22
1508	30
1509	12
1510	19
1511	27
1512	29
1513	31
1514	26
1515	22
1516	25
1517	28
1518	26
1519	16
1520	14
1521	20
1522	19
1523	10
1524	22
1525	23
1526	19
1527	14
1528	25
1529	21
1530	21
1531	15
1532	22
1533	23
1534	17
1535	21
1536	20
1537	16
1538	16
1539	14
1540	15
1541	17
1542	19
1543	15
1544	21
1545	19
1546	20
1547	9
1548	11
1549	9
1550	10
1551	17
1552	14
1553	17
1554	18
1555	10
1556	19
1557	19
1558	17
1559	11
1560	10
1561	9
1562	13
1563	11
1564	10
1565	12
1566	15
1567	9
1568	12
1569	14
1570	11
1571	13
1572	14
1573	6
1574	7
1575	7
1576	10
1577	8
1578	5
1579	7
1580	14
1581	9
1582	14
1583	13
1584	8
1585	14
1586	8
1587	15
1588	14
1589	11
1590	12
1591	24
1592	19
1593	19
1594	18
1595	18
1596	17
1597	18
1598	15
1599	19
1600	20
1601	23
1602	18
1603	26
1604	29
1605	34
1606	27
1607	26
1608	34
1609	32
1610	36
1611	43
1612	30
1613	28
1614	33
1615	29
1616	45
1617	49
1618	37
1619	43
1620	54
1621	56
1622	63
1623	44
1624	47
1625	53
1626	55
1627	61
1628	54
1629	63
1630	56
1631	66
1632	85
1633	53
1634	74
1635	77
1636	88
1637	88
1638	83
1639	82
1640	80
1641	77
1642	85
1643	83
1644	72
1645	73
1646	103
1647	81
1648	95
1649	103
1650	93
1651	85
1652	94
1653	69
1654	83
1655	98
1656	90
1657	80
1658	90
1659	85
1660	82
1661	81
1662	72
1663	95
1664	75
1665	82
1666	71
1667	68
1668	66
1669	61
1670	62
1671	64
1672	59
1673	50
1674	66
1675	36
1676	68
1677	55
1678	47
1679	43
1680	43
1681	35
1682	42
1683	26
1684	27
1685	33
1686	42
1687	27
1688	31
1689	36
1690	34
1691	35
1692	27
1693	19
1694	25
1695	21
1696	20
1697	18
1698	20
1699	22
1700	19
1701	8
1702	9
1703	13
1704	7
1705	12
1706	11
1707	10
1708	12
1709	10
1710	8
1711	13
1712	10
1713	5
1714	10
1715	6
1716	9
1717	7
1718	7
1719	8
1720	10
1721	6
1722	2
1723	7
1724	7
1725	8
1726	8
1727	8
1728	8
1729	5
1730	7
1731	5
1732	5
1733	5
1734	4
1735	4
1736	6
1737	9
1738	2
1739	4
1740	2
1741	5
1742	9
1743	3
1744	6
1745	5
1746	6
1747	8
1748	4
1749	1
1750	7
1751	1
1752	5
1753	1
1754	2
1755	6
1756	1
1757	0
1758	5
1759	4
1760	2
1761	5
1762	3
1763	6
1764	4
1765	1
1766	7
1767	2
1768	7
1769	4
1770	3
1771	6
1772	5
1773	3
1774	3
1775	2
1776	4
1777	1
1778	6
1779	3
1780	2
1781	3
1782	3
1783	1
1784	4
1785	2
1786	3
1787	2
1788	3
1789	6
1790	4
1791	2
1792	4
1793	4
1794	4
1795	3
1796	0
1797	5
1798	1
1799	4
1800	3
1801	2
1802	1
1803	2
1804	3
1805	0
1806	5
1807	4
1808	1
1809	2
1810	2
1811	1
1812	0
1813	3
1814	0
1815	2
1816	2
1817	3
1818	3
1819	3
1820	4
1821	1
1822	3
1823	4
1824	6
1825	5
1826	1
1827	3
1828	2
1829	3
1830	4
1831	2
1832	0
1833	2
1834	2
1835	2
1836	4
1837	3
1838	2
1839	1
1840	2
1841	2
1842	1
1843	2
1844	6
1845	3
1846	4
1847	1
1848	0
1849	4
1850	6
1851	1
1852	1
1853	1
1854	1
1855	1
1856	3
1857	0
1858	1
1859	4
1860	0
1861	1
1862	1
1863	1
1864	3
1865	1
1866	1
1867	2
1868	2
1869	5
1870	2
1871	1
1872	2
1873	2
1874	4
1875	0
1876	1
1877	2
1878	4
1879	4
1880	1
1881	1
1882	1
1883	2
1884	4
1885	0
1886	2
1887	1
1888	3
1889	2
1890	1
1891	2
1892	2
1893	3
1894	0
1895	3
1896	0
1897	3
1898	1
1899	2
1900	1
1901	2
1902	0
1903	2
1904	3
1905	1
1906	2
1907	2
1908	1
1909	2
1910	1
1911	3
1912	2
1913	3
1914	0
1915	2
1916	0
1917	2
1918	3
1919	1
1920	1
1921	2
1922	2
1923	2
1924	3
1925	2
1926	2
1927	1
1928	6
1929	1
1930	2
1931	0
1932	2
1933	2
1934	1
1935	1
1936	0
1937	3
1938	1
1939	3
1940	0
1941	2
1942	1
1943	1
1944	3
1945	3
1946	0
1947	2
1948	0
1949	4
1950	1
1951	1
1952	3
1953	3
1954	2
1955	1
1956	2
1957	1
1958	1
1959	2
1960	0
1961	1
1962	2
1963	1
1964	4
1965	3
1966	2
1967	1
1968	3
1969	1
1970	0
1971	0
1972	1
1973	0
1974	3
1975	2
1976	2
1977	0
1978	0
1979	0
1980	0
1981	0
1982	1
1983	1
1984	0
1985	1
1986	1
1987	2
1988	5
1989	0
1990	1
1991	1
1992	1
1993	3
1994	2
1995	0
1996	1
1997	3
1998	2
1999	0
2000	2
2001	1
2002	0
2003	0
2004	3
2005	1
2006	0
2007	0
2008	2
2009	3
2010	1
2011	1
2012	0
2013	3
2014	2
2015	1
2016	0
2017	0
2018	0
2019	0
2020	0
2021	0
2022	0
2023	0
2024	0
2025	0
2026	0
2027	0
2028	0
2029	0
2030	0
2031	0
2032	0
2033	0
2034	0
2035	0
2036	0
2037	0
2038	0
2039	0
2040	0
2041	0
2042	0
2043	0
2044	0
2045	0
2046	0
2047	0
