0	0
1	0
2	0
3	0
4	0
5	0
6	0
7	0
8	0
9	1
10	17
11	255
12	1424
13	5249
14	4087
15	1260
16	563
17	436
18	430
19	404
20	368
21	408
22	405
23	427
24	350
25	380
26	416
27	398
28	378
29	407
30	401
31	399
32	426
33	432
34	418
35	423
36	388
37	421
38	444
39	397
40	378
41	415
42	408
43	401
44	390
45	411
46	394
47	418
48	390
49	402
50	407
51	381
52	397
53	391
54	377
55	408
56	417
57	399
58	392
59	393
60	430
61	432
62	399
63	380
64	392
65	420
66	347
67	408
68	464
69	408
70	401
71	391
72	405
73	386
74	413
75	397
76	393
77	419
78	403
79	410
80	421
81	417
82	428
83	416
84	390
85	364
86	412
87	450
88	406
89	381
90	438
91	380
92	377
93	369
94	416
95	422
96	408
97	408
98	413
99	404
100	426
101	418
102	361
103	402
104	386
105	388
106	463
107	445
108	420
109	418
110	398
111	417
112	442
113	404
114	347
115	438
116	406
117	383
118	415
119	400
120	401
121	421
122	414
123	429
124	414
125	425
126	384
127	432
128	433
129	411
130	425
131	413
132	416
133	401
134	425
135	440
136	433
137	391
138	441
139	399
140	413
141	492
142	469
143	397
144	453
145	454
146	487
147	488
148	491
149	493
150	518
151	546
152	532
153	552
154	539
155	585
156	559
157	540
158	595
159	554
160	552
161	553
162	554
163	577
164	557
165	543
166	539
167	554
168	572
169	554
170	517
171	469
172	497
173	516
174	507
175	480
176	511
177	541
178	497
179	476
180	488
181	532
182	511
183	490
184	490
185	464
186	474
187	477
188	505
189	505
190	497
191	474
192	502
193	465
194	490
195	449
196	517
197	510
198	483
199	442
200	451
201	477
202	494
203	504
204	498
205	452
206	465
207	433
208	459
209	498
210	485
211	440
212	471
213	481
214	464
215	490
216	459
217	505
218	427
219	474
220	465
221	460
222	463
223	411
224	455
225	419
226	480
227	406
228	482
229	408
230	424
231	466
232	453
233	438
234	462
235	470
236	468
237	428
238	436
239	449
240	434
241	421
242	427
243	419
244	459
245	423
246	444
247	436
248	455
249	432
250	401
251	421
252	417
253	425
254	418
255	413
256	474
257	465
258	423
259	418
260	440
261	412
262	431
263	405
264	371
265	432
266	407
267	386
268	437
269	462
270	416
271	392
272	431
273	408
274	425
275	420
276	427
277	388
278	395
279	425
280	405
281	425
282	388
283	429
284	409
285	424
286	396
287	382
288	425
289	441
290	430
291	390
292	381
293	366
294	404
295	388
296	411
297	395
298	401
299	403
300	401
301	437
302	423
303	407
304	401
305	413
306	397
307	365
308	402
309	389
310	405
311	397
312	410
313	419
314	378
315	395
316	417
317	414
318	378
319	387
320	424
321	417
322	382
323	410
324	387
325	450
326	394
327	379
328	388
329	401
330	421
331	402
332	387
333	403
334	338
335	380
336	402
337	428
338	383
339	393
340	398
341	438
342	403
343	420
344	408
345	402
346	407
347	358
348	423
349	418
350	423
351	409
352	433
353	410
354	361
355	401
356	399
357	402
358	371
359	417
360	417
361	427
362	390
363	431
364	386
365	387
366	377
367	391
368	371
369	429
370	381
371	412
372	405
373	379
374	406
375	413
376	430
377	414
378	399
379	409
380	414
381	378
382	381
383	391
384	417
385	370
386	381
387	410
388	428
389	414
390	421
391	395
392	421
393	438
394	386
395	392
396	420
397	381
398	426
399	397
400	366
401	375
402	373
403	392
404	362
405	400
406	387
407	401
408	366
409	399
410	435
411	430
412	415
413	429
414	394
415	430
416	412
417	413
418	400
419	375
420	415
421	425
422	413
423	431
424	366
425	406
426	416
427	428
428	401
429	434
430	410
431	402
432	403
433	371
434	414
435	410
436	396
437	400
438	423
439	428
440	376
441	417
442	407
443	378
444	442
445	414
446	425
447	417
448	396
449	401
450	398
451	417
452	406
453	396
454	397
455	388
456	391
457	420
458	386
459	412
460	431
461	405
462	452
463	418
464	415
465	472
466	378
467	422
468	413
469	430
470	388
471	394
472	417
473	432
474	419
475	416
476	459
477	406
478	477
479	417
480	442
481	432
482	436
483	429
484	401
485	405
486	409
487	428
488	436
489	419
490	426
491	439
492	435
493	398
494	397
495	442
496	442
497	417
498	433
499	437
500	420
501	466
502	422
503	460
504	449
505	416
506	505
507	412
508	402
509	407
510	427
511	432
512	369
513	463
514	453
515	408
516	441
517	478
518	438
519	476
520	460
521	415
522	437
523	442
524	445
525	403
526	430
527	424
528	438
529	447
530	424
531	444
532	404
533	465
534	409
535	443
536	428
537	463
538	445
539	498
540	455
541	440
542	436
543	471
544	486
545	439
546	454
547	450
548	453
549	446
550	478
551	469
552	449
553	496
554	480
555	481
556	451
557	440
558	444
559	470
560	502
561	462
562	479
563	462
564	437
565	438
566	437
567	454
568	452
569	440
570	426
571	444
572	420
573	408
574	457
575	456
576	448
577	469
578	425
579	398
580	431
581	440
582	444
583	460
584	442
585	418
586	458
587	459
588	394
589	449
590	425
591	449
592	456
593	456
594	411
595	438
596	424
597	448
598	423
599	451
600	450
601	442
602	460
603	407
604	418
605	468
606	397
607	376
608	426
609	434
610	408
611	442
612	437
613	386
614	402
615	371
616	402
617	441
618	417
619	401
620	393
621	389
622	379
623	367
624	377
625	365
626	354
627	345
628	370
629	348
630	318
631	326
632	368
633	356
634	347
635	343
636	349
637	313
638	297
639	292
640	316
641	322
642	347
643	288
644	271
645	303
646	300
647	319
648	300
649	283
650	297
651	290
652	280
653	269
654	254
655	267
656	277
657	272
658	245
659	273
660	261
661	248
662	242
663	246
664	285
665	256
666	254
667	269
668	244
669	268
670	242
671	259
672	269
673	231
674	265
675	249
676	244
677	250
678	213
679	261
680	239
681	244
682	253
683	242
684	275
685	252
686	225
687	228
688	242
689	257
690	239
691	258
692	247
693	248
694	237
695	256
696	237
697	243
698	234
699	250
700	224
701	241
702	219
703	237
704	220
705	235
706	229
707	236
708	240
709	233
710	259
711	228
712	222
713	230
714	258
715	181
716	245
717	215
718	246
719	235
720	229
721	209
722	219
723	216
724	213
725	191
726	206
727	221
728	214
729	239
730	210
731	219
732	240
733	245
734	268
735	293
736	307
737	312
738	336
739	339
740	342
741	379
742	433
743	471
744	451
745	547
746	564
747	622
748	667
749	716
750	731
751	813
752	819
753	898
754	967
755	1109
756	1137
757	1157
758	1258
759	1304
760	1378
761	1419
762	1442
763	1497
764	1629
765	1648
766	1562
767	1636
768	1668
769	1695
770	1733
771	1728
772	1686
773	1775
774	1736
775	1687
776	1657
777	1664
778	1544
779	1488
780	1456
781	1386
782	1313
783	1268
784	1217
785	1243
786	1111
787	1056
788	953
789	1003
790	858
791	824
792	740
793	701
794	684
795	560
796	588
797	518
798	475
799	420
800	386
801	367
802	304
803	307
804	253
805	248
806	211
807	203
808	184
809	170
810	166
811	121
812	137
813	107
814	109
815	97
816	91
817	95
818	81
819	103
820	97
821	84
822	84
823	82
824	90
825	99
826	89
827	95
828	107
829	93
830	123
831	113
832	130
833	118
834	168
835	156
836	182
837	172
838	191
839	231
840	241
841	258
842	275
843	295
844	348
845	365
846	409
847	419
848	497
849	536
850	518
851	627
852	642
853	681
854	703
855	784
856	816
857	899
858	920
859	927
860	1066
861	1093
862	1110
863	1113
864	1144
865	1203
866	1225
867	1262
868	1314
869	1380
870	1356
871	1327
872	1330
873	1409
874	1423
875	1316
876	1409
877	1407
878	1409
879	1335
880	1223
881	1342
882	1253
883	1240
884	1211
885	1124
886	1091
887	1100
888	1035
889	952
890	934
891	837
892	808
893	761
894	721
895	685
896	644
897	551
898	541
899	499
900	454
901	424
902	374
903	406
904	302
905	318
906	275
907	292
908	255
909	230
910	211
911	175
912	211
913	154
914	149
915	160
916	135
917	131
918	137
919	91
920	113
921	95
922	94
923	98
924	67
925	105
926	85
927	74
928	73
929	77
930	72
931	67
932	71
933	80
934	64
935	77
936	69
937	61
938	63
939	79
940	82
941	66
942	67
943	58
944	82
945	69
946	70
947	60
948	78
949	55
950	92
951	61
952	77
953	61
954	72
955	67
956	66
957	72
958	56
959	71
960	64
961	69
962	64
963	68
964	59
965	69
966	67
967	67
968	57
969	65
970	64
971	65
972	76
973	56
974	80
975	61
976	69
977	56
978	49
979	54
980	46
981	56
982	86
983	50
984	54
985	71
986	81
987	58
988	70
989	57
990	62
991	62
992	46
993	56
994	51
995	68
996	51
997	58
998	60
999	56
1000	69
1001	62
1002	73
1003	73
1004	62
1005	47
1006	72
1007	57
1008	64
1009	54
1010	55
1011	59
1012	60
1013	63
1014	63
1015	61
1016	54
1017	49
1018	57
1019	62
1020	51
1021	53
1022	67
1023	54
1024	59
1025	45
1026	44
1027	61
1028	48
1029	54
1030	55
1031	62
1032	60
1033	56
1034	72
1035	72
1036	54
1037	56
1038	57
1039	60
1040	65
1041	59
1042	47
1043	48
1044	47
1045	57
1046	55
1047	44
1048	53
1049	77
1050	53
1051	59
1052	52
1053	60
1054	56
1055	50
1056	54
1057	50
1058	63
1059	53
1060	62
1061	70
1062	49
1063	49
1064	55
1065	53
1066	43
1067	63
1068	38
1069	48
1070	60
1071	50
1072	50
1073	60
1074	52
1075	56
1076	53
1077	66
1078	66
1079	59
1080	42
1081	53
1082	53
1083	49
1084	45
1085	53
1086	51
1087	57
1088	48
1089	53
1090	39
1091	48
1092	51
1093	50
1094	68
1095	33
1096	44
1097	53
1098	44
1099	51
1100	57
1101	43
1102	57
1103	43
1104	48
1105	47
1106	55
1107	46
1108	50
1109	43
1110	47
1111	55
1112	65
1113	61
1114	52
1115	37
1116	33
1117	53
1118	56
1119	28
1120	39
1121	39
1122	34
1123	42
1124	43
1125	47
1126	33
1127	30
1128	64
1129	43
1130	52
1131	47
1132	55
1133	47
1134	41
1135	49
1136	53
1137	45
1138	48
1139	50
1140	38
1141	39
1142	49
1143	52
1144	35
1145	57
1146	46
1147	41
1148	41
1149	60
1150	40
1151	45
1152	49
1153	38
1154	47
1155	36
1156	34
1157	55
1158	37
1159	44
1160	51
1161	41
1162	43
1163	37
1164	37
1165	40
1166	44
1167	50
1168	40
1169	45
1170	43
1171	46
1172	45
1173	42
1174	37
1175	34
1176	45
1177	58
1178	54
1179	50
1180	45
1181	45
1182	31
1183	51
1184	34
1185	50
1186	33
1187	49
1188	46
1189	54
1190	48
1191	58
1192	39
1193	33
1194	35
1195	47
1196	38
1197	38
1198	42
1199	32
1200	51
1201	42
1202	47
1203	44
1204	43
1205	41
1206	25
1207	46
1208	37
1209	32
1210	39
1211	36
1212	49
1213	50
1214	32
1215	38
1216	39
1217	34
1218	47
1219	46
1220	40
1221	39
1222	27
1223	36
1224	38
1225	41
1226	41
1227	43
1228	38
1229	29
1230	48
1231	36
1232	51
1233	51
1234	50
1235	37
1236	42
1237	30
1238	34
1239	44
1240	35
1241	34
1242	42
1243	39
1244	27
1245	40
1246	44
1247	44
1248	30
1249	39
1250	31
1251	44
1252	35
1253	52
1254	40
1255	38
1256	36
1257	34
1258	39
1259	30
1260	30
1261	42
1262	37
1263	38
1264	27
1265	41
1266	36
1267	43
1268	31
1269	51
1270	36
1271	22
1272	43
1273	33
1274	38
1275	42
1276	38
1277	22
1278	30
1279	36
1280	41
1281	29
1282	45
1283	35
1284	44
1285	36
1286	19
1287	29
1288	31
1289	27
1290	32
1291	29
1292	31
1293	30
1294	31
1295	37
1296	32
1297	32
1298	33
1299	23
1300	31
1301	34
1302	28
1303	39
1304	28
1305	35
1306	28
1307	32
1308	33
1309	42
1310	34
1311	43
1312	36
1313	32
1314	36
1315	36
1316	30
1317	30
1318	35
1319	32
1320	32
1321	38
1322	37
1323	23
1324	31
1325	42
1326	30
1327	45
1328	27
1329	22
1330	36
1331	29
1332	41
1333	25
1334	40
1335	46
1336	32
1337	25
1338	38
1339	27
1340	32
1341	43
1342	33
1343	35
1344	37
1345	27
1346	25
1347	33
1348	30
1349	30
1350	33
1351	45
1352	44
1353	32
1354	25
1355	33
1356	34
1357	34
1358	34
1359	27
1360	38
1361	31
1362	35
1363	30
1364	31
1365	39
1366	27
1367	20
1368	39
1369	32
1370	26
1371	30
1372	28
1373	25
1374	40
1375	40
1376	30
1377	27
1378	34
1379	27
1380	35
1381	32
1382	36
1383	36
1384	41
1385	34
1386	32
1387	36
1388	26
1389	26
1390	31
1391	39
1392	41
1393	35
1394	26
1395	36
1396	33
1397	36
1398	31
1399	31
1400	38
1401	27
1402	38
1403	22
1404	32
1405	27
1406	31
1407	42
1408	38
1409	40
1410	37
1411	32
1412	34
1413	28
1414	39
1415	27
1416	47
1417	30
1418	24
1419	34
1420	36
1421	34
1422	28
1423	33
1424	42
1425	32
1426	37
1427	38
1428	33
1429	25
1430	25
1431	32
1432	26
1433	36
1434	34
1435	36
1436	27
1437	42
1438	16
1439	32
1440	28
1441	42
1442	31
1443	34
1444	34
1445	36
1446	28
1447	31
1448	36
1449	33
1450	37
1451	36
1452	27
1453	28
1454	33
1455	21
1456	26
1457	34
1458	30
1459	30
1460	33
1461	36
1462	39
1463	34
1464	26
1465	36
1466	36
1467	31
1468	35
1469	37
1470	34
1471	30
1472	32
1473	32
1474	25
1475	31
1476	31
1477	27
1478	25
1479	30
1480	30
1481	23
1482	40
1483	29
1484	31
1485	34
1486	28
1487	28
1488	24
1489	34
1490	21
1491	26
1492	18
1493	19
1494	24
1495	26
1496	19
1497	24
1498	30
1499	32
1500	27
1501	23
1502	29
1503	29
1504	31
1505	27
1506	19
1507	17
1508	24
1509	26
1510	17
1511	21
1512	25
1513	21
1514	17
1515	15
1516	19
1517	21
1518	15
1519	17
1520	17
1521	22
1522	17
1523	20
1524	16
1525	10
1526	11
1527	15
1528	6
1529	14
1530	12
1531	16
1532	14
1533	10
1534	19
1535	10
1536	11
1537	11
1538	13
1539	9
1540	9
1541	6
1542	6
1543	13
1544	7
1545	14
1546	8
1547	5
1548	6
1549	9
1550	12
1551	7
1552	6
1553	5
1554	9
1555	6
1556	4
1557	4
1558	10
1559	6
1560	9
1561	6
1562	4
1563	7
1564	9
1565	5
1566	5
1567	6
1568	9
1569	5
1570	4
1571	9
1572	3
1573	10
1574	4
1575	10
1576	5
1577	4
1578	5
1579	8
1580	8
1581	5
1582	5
1583	5
1584	3
1585	2
1586	9
1587	5
1588	1
1589	5
1590	1
1591	6
1592	10
1593	7
1594	9
1595	5
1596	7
1597	6
1598	8
1599	14
1600	9
1601	8
1602	10
1603	9
1604	19
1605	11
1606	12
1607	11
1608	23
1609	17
1610	15
1611	22
1612	20
1613	22
1614	27
1615	19
1616	24
1617	21
1618	28
1619	32
1620	35
1621	32
1622	35
1623	38
1624	44
1625	34
1626	52
1627	38
1628	43
1629	51
1630	40
1631	56
1632	70
1633	59
1634	53
1635	75
1636	70
1637	59
1638	70
1639	57
1640	78
1641	68
1642	79
1643	76
1644	86
1645	71
1646	82
1647	72
1648	78
1649	82
1650	78
1651	85
1652	89
1653	88
1654	68
1655	65
1656	71
1657	62
1658	81
1659	59
1660	76
1661	91
1662	64
1663	75
1664	83
1665	65
1666	77
1667	53
1668	54
1669	55
1670	50
1671	62
1672	54
1673	50
1674	47
1675	50
1676	40
1677	36
1678	42
1679	39
1680	32
1681	45
1682	42
1683	32
1684	35
1685	33
1686	26
1687	25
1688	24
1689	27
1690	18
1691	14
1692	21
1693	13
1694	12
1695	12
1696	13
1697	7
1698	14
1699	3
1700	14
1701	11
1702	9
1703	8
1704	7
1705	4
1706	7
1707	6
1708	7
1709	10
1710	2
1711	10
1712	6
1713	3
1714	2
1715	8
1716	5
1717	3
1718	2
1719	2
1720	5
1721	6
1722	3
1723	2
1724	1
1725	1
1726	1
1727	4
1728	2
1729	4
1730	6
1731	6
1732	0
1733	2
1734	1
1735	0
1736	1
1737	1
1738	0
1739	2
1740	1
1741	1
1742	4
1743	1
1744	3
1745	2
1746	0
1747	3
1748	2
1749	2
1750	2
1751	1
1752	3
1753	6
1754	2
1755	0
1756	1
1757	2
1758	1
1759	2
1760	2
1761	1
1762	1
1763	2
1764	3
1765	3
1766	1
1767	1
1768	3
1769	3
1770	0
1771	0
1772	1
1773	0
1774	0
1775	0
1776	2
1777	3
1778	2
1779	0
1780	1
1781	1
1782	3
1783	4
1784	0
1785	0
1786	1
1787	2
1788	1
1789	1
1790	1
1791	1
1792	0
1793	2
1794	3
1795	0
1796	0
1797	0
1798	2
1799	0
1800	0
1801	0
1802	2
1803	0
1804	1
1805	1
1806	0
1807	2
1808	1
1809	3
1810	0
1811	0
1812	1
1813	2
1814	1
1815	2
1816	1
1817	1
1818	0
1819	2
1820	1
1821	0
1822	1
1823	0
1824	0
1825	1
1826	2
1827	1
1828	2
1829	1
1830	1
1831	1
1832	2
1833	0
1834	1
1835	0
1836	0
1837	0
1838	1
1839	1
1840	2
1841	0
1842	0
1843	0
1844	1
1845	0
1846	0
1847	0
1848	1
1849	1
1850	1
1851	0
1852	1
1853	2
1854	2
1855	0
1856	2
1857	1
1858	3
1859	2
1860	1
1861	0
1862	0
1863	1
1864	0
1865	1
1866	0
1867	1
1868	2
1869	2
1870	1
1871	3
1872	0
1873	1
1874	1
1875	0
1876	0
1877	0
1878	0
1879	1
1880	2
1881	0
1882	0
1883	1
1884	0
1885	1
1886	0
1887	0
1888	0
1889	0
1890	0
1891	1
1892	0
1893	0
1894	0
1895	0
1896	0
1897	2
1898	2
1899	1
1900	1
1901	0
1902	0
1903	0
1904	0
1905	3
1906	0
1907	0
1908	1
1909	1
1910	0
1911	0
1912	0
1913	0
1914	0
1915	2
1916	0
1917	2
1918	0
1919	0
1920	0
1921	0
1922	0
1923	0
1924	0
1925	0
1926	0
1927	0
1928	0
1929	1
1930	0
1931	1
1932	0
1933	1
1934	1
1935	0
1936	0
1937	0
1938	1
1939	0
1940	1
1941	1
1942	0
1943	0
1944	0
1945	1
1946	0
1947	0
1948	0
1949	2
1950	2
1951	2
1952	1
1953	1
1954	0
1955	0
1956	0
1957	1
1958	0
1959	1
1960	1
1961	0
1962	0
1963	1
1964	1
1965	0
1966	0
1967	0
1968	0
1969	0
1970	0
1971	0
1972	0
1973	0
1974	1
1975	1
1976	0
1977	0
1978	0
1979	1
1980	0
1981	0
1982	0
1983	0
1984	1
1985	0
1986	2
1987	0
1988	1
1989	0
1990	0
1991	0
1992	1
1993	0
1994	1
1995	1
1996	0
1997	1
1998	0
1999	1
2000	0
2001	0
2002	1
2003	2
2004	1
2005	0
2006	0
2007	0
2008	0
2009	0
2010	0
2011	0
2012	0
2013	0
2014	0
2015	0
2016	0
2017	0
2018	0
2019	0
2020	0
2021	0
2022	0
2023	0
2024	0
2025	0
2026	0
2027	0
2028	0
2029	0
2030	0
2031	0
2032	0
2033	0
2034	0
2035	0
2036	0
2037	0
2038	0
2039	0
2040	0
2041	0
2042	0
2043	0
2044	0
2045	0
2046	0
2047	0
