0	0
1	0
2	0
3	0
4	0
5	0
6	0
7	0
8	0
9	1
10	37
11	209
12	696
13	2404
14	1796
15	708
16	491
17	431
18	357
19	396
20	399
21	405
22	427
23	441
24	425
25	393
26	431
27	428
28	443
29	433
30	445
31	436
32	459
33	433
34	430
35	474
36	451
37	456
38	431
39	414
40	426
41	418
42	405
43	465
44	450
45	418
46	451
47	426
48	420
49	407
50	423
51	469
52	402
53	449
54	462
55	408
56	394
57	433
58	428
59	435
60	433
61	419
62	468
63	458
64	415
65	451
66	421
67	409
68	467
69	411
70	436
71	426
72	423
73	469
74	444
75	425
76	429
77	402
78	448
79	437
80	414
81	440
82	405
83	413
84	387
85	408
86	455
87	430
88	418
89	501
90	446
91	407
92	402
93	435
94	457
95	440
96	447
97	405
98	397
99	458
100	421
101	393
102	437
103	445
104	416
105	430
106	447
107	423
108	430
109	397
110	449
111	432
112	438
113	414
114	428
115	452
116	429
117	438
118	431
119	414
120	442
121	404
122	413
123	416
124	451
125	416
126	426
127	434
128	405
129	410
130	393
131	445
132	411
133	419
134	439
135	434
136	402
137	418
138	457
139	461
140	472
141	446
142	464
143	444
144	476
145	476
146	448
147	484
148	527
149	502
150	581
151	541
152	575
153	539
154	549
155	571
156	546
157	623
158	562
159	587
160	559
161	586
162	548
163	584
164	565
165	561
166	610
167	570
168	588
169	566
170	551
171	562
172	555
173	568
174	534
175	523
176	500
177	527
178	566
179	522
180	528
181	540
182	529
183	548
184	488
185	526
186	558
187	513
188	517
189	564
190	506
191	487
192	491
193	496
194	508
195	508
196	486
197	493
198	531
199	519
200	528
201	504
202	463
203	481
204	505
205	511
206	446
207	499
208	496
209	475
210	532
211	519
212	538
213	516
214	469
215	508
216	465
217	477
218	510
219	473
220	505
221	533
222	498
223	509
224	501
225	494
226	474
227	435
228	452
229	467
230	495
231	462
232	444
233	452
234	461
235	441
236	459
237	482
238	456
239	430
240	465
241	481
242	464
243	437
244	452
245	454
246	446
247	465
248	422
249	427
250	477
251	466
252	472
253	468
254	424
255	440
256	440
257	466
258	441
259	415
260	391
261	450
262	430
263	461
264	434
265	458
266	414
267	461
268	472
269	428
270	414
271	471
272	438
273	436
274	391
275	449
276	430
277	431
278	426
279	411
280	431
281	452
282	430
283	442
284	431
285	438
286	457
287	435
288	454
289	386
290	421
291	411
292	419
293	441
294	425
295	429
296	413
297	444
298	431
299	455
300	401
301	394
302	397
303	417
304	403
305	434
306	445
307	413
308	478
309	416
310	434
311	444
312	474
313	431
314	408
315	413
316	431
317	450
318	424
319	383
320	419
321	396
322	405
323	416
324	428
325	410
326	443
327	400
328	401
329	431
330	410
331	411
332	393
333	432
334	417
335	387
336	397
337	386
338	431
339	441
340	386
341	454
342	431
343	402
344	418
345	404
346	420
347	415
348	425
349	429
350	423
351	427
352	434
353	424
354	450
355	402
356	395
357	407
358	458
359	398
360	442
361	448
362	401
363	435
364	398
365	444
366	444
367	403
368	374
369	404
370	383
371	381
372	415
373	420
374	402
375	406
376	444
377	424
378	402
379	424
380	442
381	418
382	395
383	412
384	421
385	376
386	429
387	437
388	440
389	474
390	402
391	440
392	411
393	411
394	416
395	418
396	416
397	408
398	449
399	417
400	427
401	413
402	424
403	440
404	429
405	416
406	445
407	430
408	413
409	439
410	449
411	421
412	432
413	432
414	432
415	422
416	421
417	421
418	419
419	392
420	408
421	412
422	451
423	447
424	441
425	435
426	406
427	404
428	453
429	418
430	441
431	406
432	464
433	425
434	463
435	434
436	402
437	441
438	448
439	389
440	413
441	417
442	458
443	430
444	411
445	444
446	423
447	391
448	419
449	410
450	442
451	431
452	430
453	425
454	454
455	469
456	440
457	445
458	421
459	423
460	426
461	413
462	444
463	460
464	412
465	402
466	422
467	450
468	481
469	430
470	486
471	448
472	423
473	430
474	419
475	415
476	453
477	426
478	420
479	444
480	422
481	422
482	442
483	472
484	455
485	441
486	427
487	422
488	446
489	419
490	450
491	411
492	453
493	459
494	464
495	430
496	419
497	419
498	449
499	433
500	458
501	441
502	432
503	449
504	445
505	472
506	457
507	462
508	483
509	448
510	468
511	444
512	448
513	425
514	409
515	462
516	484
517	487
518	504
519	468
520	464
521	462
522	459
523	461
524	483
525	444
526	519
527	446
528	480
529	434
530	450
531	445
532	500
533	495
534	489
535	500
536	479
537	510
538	487
539	479
540	460
541	457
542	500
543	488
544	502
545	483
546	482
547	484
548	475
549	514
550	515
551	486
552	513
553	482
554	503
555	514
556	490
557	522
558	478
559	451
560	505
561	500
562	493
563	495
564	517
565	484
566	514
567	507
568	466
569	453
570	456
571	475
572	497
573	478
574	481
575	506
576	523
577	476
578	507
579	463
580	515
581	489
582	491
583	484
584	511
585	504
586	485
587	460
588	496
589	469
590	460
591	518
592	524
593	506
594	483
595	485
596	492
597	486
598	510
599	531
600	461
601	509
602	503
603	491
604	538
605	484
606	458
607	524
608	496
609	498
610	490
611	522
612	515
613	472
614	481
615	503
616	506
617	501
618	513
619	515
620	493
621	483
622	477
623	475
624	446
625	458
626	463
627	469
628	451
629	461
630	447
631	420
632	423
633	437
634	479
635	376
636	430
637	425
638	388
639	367
640	380
641	371
642	373
643	403
644	382
645	391
646	388
647	366
648	376
649	334
650	344
651	352
652	353
653	341
654	328
655	345
656	343
657	329
658	344
659	343
660	337
661	339
662	336
663	315
664	365
665	324
666	349
667	344
668	291
669	325
670	317
671	328
672	296
673	280
674	298
675	291
676	337
677	326
678	305
679	302
680	281
681	330
682	300
683	329
684	315
685	298
686	299
687	283
688	282
689	311
690	259
691	307
692	298
693	288
694	339
695	298
696	292
697	329
698	284
699	289
700	261
701	286
702	320
703	297
704	279
705	307
706	287
707	272
708	272
709	308
710	284
711	288
712	275
713	285
714	285
715	262
716	298
717	257
718	278
719	246
720	285
721	290
722	270
723	280
724	261
725	261
726	271
727	278
728	292
729	264
730	272
731	266
732	273
733	273
734	297
735	299
736	301
737	356
738	351
739	393
740	385
741	470
742	456
743	499
744	575
745	529
746	614
747	673
748	721
749	793
750	867
751	848
752	930
753	1018
754	1073
755	1184
756	1247
757	1308
758	1347
759	1404
760	1579
761	1627
762	1627
763	1690
764	1730
765	1807
766	1770
767	1890
768	1907
769	1956
770	2058
771	2044
772	2128
773	1985
774	2085
775	1997
776	1979
777	1910
778	1949
779	1902
780	1829
781	1767
782	1678
783	1754
784	1616
785	1565
786	1498
787	1473
788	1361
789	1285
790	1259
791	1139
792	1040
793	1003
794	933
795	873
796	796
797	816
798	745
799	639
800	588
801	540
802	469
803	477
804	438
805	381
806	361
807	318
808	285
809	267
810	239
811	244
812	222
813	189
814	193
815	179
816	157
817	172
818	130
819	146
820	130
821	121
822	103
823	104
824	101
825	122
826	113
827	120
828	111
829	137
830	136
831	123
832	137
833	142
834	155
835	154
836	175
837	213
838	231
839	244
840	257
841	284
842	290
843	355
844	350
845	378
846	425
847	435
848	481
849	555
850	569
851	610
852	628
853	704
854	728
855	836
856	935
857	957
858	1058
859	1035
860	987
861	1133
862	1169
863	1198
864	1307
865	1409
866	1382
867	1414
868	1509
869	1550
870	1515
871	1526
872	1603
873	1531
874	1645
875	1646
876	1630
877	1643
878	1601
879	1620
880	1541
881	1509
882	1547
883	1492
884	1544
885	1463
886	1357
887	1332
888	1280
889	1238
890	1200
891	1239
892	1067
893	989
894	1017
895	936
896	907
897	831
898	843
899	779
900	713
901	685
902	626
903	547
904	538
905	500
906	480
907	434
908	412
909	377
910	347
911	318
912	299
913	259
914	241
915	256
916	218
917	184
918	174
919	165
920	170
921	163
922	146
923	138
924	155
925	122
926	114
927	125
928	107
929	110
930	110
931	95
932	96
933	98
934	89
935	95
936	84
937	87
938	87
939	92
940	96
941	81
942	81
943	93
944	80
945	73
946	79
947	94
948	81
949	78
950	86
951	95
952	80
953	76
954	77
955	94
956	88
957	99
958	85
959	92
960	78
961	70
962	85
963	107
964	75
965	82
966	87
967	69
968	72
969	92
970	81
971	84
972	63
973	82
974	89
975	78
976	82
977	89
978	69
979	56
980	70
981	66
982	62
983	70
984	77
985	87
986	74
987	79
988	80
989	104
990	82
991	55
992	71
993	86
994	82
995	85
996	70
997	71
998	63
999	73
1000	77
1001	73
1002	82
1003	74
1004	87
1005	76
1006	71
1007	86
1008	78
1009	72
1010	83
1011	86
1012	77
1013	69
1014	80
1015	66
1016	64
1017	59
1018	82
1019	87
1020	66
1021	73
1022	75
1023	59
1024	68
1025	77
1026	76
1027	83
1028	68
1029	77
1030	76
1031	64
1032	54
1033	61
1034	76
1035	81
1036	103
1037	82
1038	68
1039	75
1040	74
1041	73
1042	59
1043	74
1044	74
1045	87
1046	75
1047	61
1048	76
1049	70
1050	72
1051	79
1052	63
1053	79
1054	66
1055	79
1056	64
1057	78
1058	75
1059	71
1060	74
1061	79
1062	60
1063	65
1064	76
1065	58
1066	71
1067	80
1068	68
1069	68
1070	55
1071	74
1072	69
1073	76
1074	64
1075	64
1076	67
1077	70
1078	69
1079	65
1080	67
1081	70
1082	59
1083	51
1084	61
1085	76
1086	64
1087	60
1088	74
1089	82
1090	75
1091	64
1092	66
1093	59
1094	55
1095	65
1096	60
1097	66
1098	72
1099	52
1100	60
1101	65
1102	65
1103	68
1104	58
1105	53
1106	65
1107	56
1108	61
1109	72
1110	71
1111	78
1112	58
1113	67
1114	78
1115	68
1116	69
1117	56
1118	72
1119	64
1120	64
1121	53
1122	76
1123	67
1124	43
1125	68
1126	68
1127	55
1128	62
1129	58
1130	76
1131	58
1132	53
1133	69
1134	74
1135	56
1136	61
1137	63
1138	73
1139	66
1140	59
1141	63
1142	67
1143	56
1144	55
1145	54
1146	69
1147	59
1148	67
1149	54
1150	63
1151	54
1152	46
1153	68
1154	58
1155	63
1156	67
1157	56
1158	43
1159	55
1160	52
1161	49
1162	58
1163	66
1164	42
1165	63
1166	54
1167	66
1168	56
1169	48
1170	59
1171	59
1172	56
1173	50
1174	59
1175	65
1176	64
1177	59
1178	49
1179	48
1180	66
1181	60
1182	45
1183	52
1184	59
1185	66
1186	58
1187	65
1188	47
1189	53
1190	53
1191	50
1192	58
1193	54
1194	50
1195	54
1196	40
1197	49
1198	72
1199	58
1200	59
1201	57
1202	51
1203	46
1204	52
1205	54
1206	62
1207	60
1208	51
1209	56
1210	52
1211	51
1212	57
1213	45
1214	44
1215	64
1216	50
1217	39
1218	55
1219	42
1220	44
1221	53
1222	59
1223	49
1224	58
1225	40
1226	55
1227	37
1228	49
1229	48
1230	47
1231	53
1232	63
1233	46
1234	32
1235	49
1236	54
1237	52
1238	52
1239	53
1240	61
1241	64
1242	55
1243	48
1244	35
1245	62
1246	45
1247	42
1248	37
1249	44
1250	58
1251	39
1252	56
1253	50
1254	46
1255	44
1256	46
1257	52
1258	51
1259	53
1260	37
1261	42
1262	51
1263	52
1264	53
1265	42
1266	38
1267	46
1268	40
1269	40
1270	42
1271	42
1272	39
1273	46
1274	47
1275	50
1276	47
1277	38
1278	40
1279	38
1280	31
1281	53
1282	38
1283	39
1284	52
1285	44
1286	40
1287	42
1288	50
1289	38
1290	45
1291	35
1292	42
1293	32
1294	47
1295	51
1296	40
1297	43
1298	41
1299	52
1300	38
1301	46
1302	40
1303	45
1304	49
1305	43
1306	41
1307	41
1308	44
1309	49
1310	43
1311	42
1312	55
1313	46
1314	34
1315	50
1316	47
1317	49
1318	47
1319	46
1320	49
1321	55
1322	47
1323	61
1324	40
1325	48
1326	50
1327	38
1328	44
1329	45
1330	35
1331	43
1332	33
1333	43
1334	45
1335	48
1336	36
1337	42
1338	55
1339	31
1340	59
1341	35
1342	41
1343	41
1344	40
1345	56
1346	47
1347	26
1348	64
1349	36
1350	68
1351	45
1352	47
1353	38
1354	41
1355	44
1356	35
1357	39
1358	43
1359	46
1360	40
1361	39
1362	44
1363	33
1364	44
1365	47
1366	46
1367	37
1368	42
1369	42
1370	36
1371	46
1372	44
1373	41
1374	45
1375	47
1376	28
1377	27
1378	36
1379	53
1380	42
1381	36
1382	45
1383	44
1384	33
1385	35
1386	39
1387	30
1388	48
1389	36
1390	45
1391	34
1392	34
1393	36
1394	44
1395	35
1396	40
1397	31
1398	31
1399	37
1400	40
1401	44
1402	37
1403	28
1404	49
1405	43
1406	31
1407	43
1408	33
1409	37
1410	32
1411	33
1412	45
1413	41
1414	47
1415	50
1416	37
1417	35
1418	41
1419	38
1420	32
1421	28
1422	45
1423	34
1424	41
1425	38
1426	42
1427	42
1428	33
1429	54
1430	35
1431	42
1432	41
1433	43
1434	47
1435	38
1436	38
1437	37
1438	36
1439	44
1440	47
1441	43
1442	42
1443	40
1444	31
1445	41
1446	44
1447	39
1448	43
1449	32
1450	35
1451	47
1452	28
1453	42
1454	37
1455	45
1456	46
1457	39
1458	37
1459	23
1460	35
1461	42
1462	43
1463	38
1464	34
1465	27
1466	46
1467	43
1468	37
1469	47
1470	39
1471	43
1472	32
1473	55
1474	55
1475	35
1476	46
1477	32
1478	35
1479	28
1480	38
1481	30
1482	37
1483	41
1484	38
1485	36
1486	32
1487	42
1488	31
1489	39
1490	37
1491	39
1492	35
1493	41
1494	29
1495	31
1496	35
1497	38
1498	26
1499	38
1500	22
1501	27
1502	38
1503	26
1504	33
1505	31
1506	33
1507	27
1508	40
1509	28
1510	22
1511	22
1512	27
1513	32
1514	37
1515	36
1516	17
1517	31
1518	30
1519	27
1520	17
1521	30
1522	20
1523	17
1524	29
1525	25
1526	22
1527	15
1528	25
1529	28
1530	23
1531	16
1532	19
1533	16
1534	24
1535	19
1536	27
1537	21
1538	20
1539	15
1540	9
1541	22
1542	19
1543	17
1544	12
1545	11
1546	18
1547	19
1548	23
1549	12
1550	11
1551	16
1552	24
1553	16
1554	14
1555	7
1556	13
1557	12
1558	12
1559	17
1560	11
1561	6
1562	10
1563	13
1564	9
1565	18
1566	15
1567	10
1568	9
1569	12
1570	14
1571	16
1572	9
1573	11
1574	3
1575	13
1576	13
1577	10
1578	13
1579	10
1580	10
1581	11
1582	17
1583	11
1584	13
1585	12
1586	9
1587	13
1588	5
1589	14
1590	16
1591	15
1592	12
1593	13
1594	14
1595	14
1596	22
1597	10
1598	12
1599	17
1600	14
1601	9
1602	19
1603	21
1604	14
1605	17
1606	13
1607	8
1608	14
1609	24
1610	14
1611	18
1612	23
1613	22
1614	16
1615	21
1616	22
1617	26
1618	27
1619	32
1620	29
1621	40
1622	27
1623	36
1624	47
1625	47
1626	40
1627	46
1628	48
1629	38
1630	56
1631	41
1632	43
1633	41
1634	61
1635	42
1636	50
1637	53
1638	63
1639	60
1640	69
1641	62
1642	80
1643	60
1644	73
1645	66
1646	74
1647	62
1648	75
1649	68
1650	73
1651	78
1652	67
1653	83
1654	76
1655	82
1656	87
1657	80
1658	72
1659	90
1660	86
1661	86
1662	80
1663	79
1664	85
1665	78
1666	89
1667	83
1668	80
1669	81
1670	84
1671	57
1672	80
1673	60
1674	59
1675	76
1676	78
1677	63
1678	68
1679	51
1680	70
1681	60
1682	45
1683	42
1684	48
1685	41
1686	46
1687	47
1688	33
1689	47
1690	29
1691	44
1692	36
1693	39
1694	53
1695	38
1696	34
1697	30
1698	40
1699	33
1700	25
1701	19
1702	18
1703	28
1704	25
1705	17
1706	8
1707	23
1708	20
1709	13
1710	11
1711	13
1712	13
1713	16
1714	16
1715	15
1716	11
1717	11
1718	9
1719	7
1720	13
1721	11
1722	5
1723	11
1724	12
1725	9
1726	9
1727	7
1728	6
1729	5
1730	6
1731	9
1732	11
1733	7
1734	4
1735	4
1736	4
1737	3
1738	6
1739	4
1740	4
1741	3
1742	6
1743	11
1744	4
1745	1
1746	2
1747	4
1748	6
1749	4
1750	3
1751	4
1752	3
1753	1
1754	1
1755	3
1756	2
1757	4
1758	3
1759	2
1760	6
1761	3
1762	5
1763	4
1764	3
1765	3
1766	7
1767	2
1768	3
1769	2
1770	3
1771	5
1772	3
1773	9
1774	4
1775	5
1776	3
1777	4
1778	1
1779	1
1780	4
1781	6
1782	4
1783	5
1784	4
1785	3
1786	7
1787	1
1788	9
1789	2
1790	1
1791	3
1792	5
1793	3
1794	7
1795	5
1796	3
1797	3
1798	5
1799	6
1800	1
1801	3
1802	2
1803	6
1804	2
1805	2
1806	6
1807	3
1808	5
1809	4
1810	2
1811	1
1812	3
1813	4
1814	2
1815	5
1816	3
1817	1
1818	4
1819	1
1820	1
1821	3
1822	5
1823	5
1824	1
1825	4
1826	3
1827	2
1828	1
1829	3
1830	3
1831	4
1832	3
1833	2
1834	2
1835	1
1836	3
1837	1
1838	1
1839	0
1840	4
1841	5
1842	2
1843	4
1844	3
1845	3
1846	3
1847	3
1848	2
1849	3
1850	4
1851	6
1852	2
1853	3
1854	1
1855	1
1856	1
1857	3
1858	2
1859	4
1860	0
1861	2
1862	6
1863	3
1864	3
1865	4
1866	1
1867	0
1868	5
1869	1
1870	2
1871	0
1872	1
1873	0
1874	3
1875	1
1876	1
1877	3
1878	0
1879	4
1880	1
1881	5
1882	1
1883	2
1884	0
1885	0
1886	2
1887	0
1888	0
1889	2
1890	1
1891	5
1892	5
1893	3
1894	3
1895	1
1896	2
1897	2
1898	4
1899	2
1900	1
1901	1
1902	4
1903	1
1904	2
1905	2
1906	2
1907	4
1908	3
1909	4
1910	3
1911	4
1912	2
1913	0
1914	2
1915	2
1916	2
1917	4
1918	1
1919	4
1920	5
1921	3
1922	0
1923	0
1924	1
1925	1
1926	5
1927	2
1928	2
1929	2
1930	1
1931	4
1932	5
1933	2
1934	2
1935	3
1936	1
1937	2
1938	0
1939	2
1940	4
1941	1
1942	0
1943	2
1944	0
1945	0
1946	2
1947	5
1948	2
1949	1
1950	0
1951	1
1952	5
1953	3
1954	1
1955	2
1956	0
1957	2
1958	2
1959	1
1960	1
1961	2
1962	3
1963	2
1964	1
1965	2
1966	0
1967	0
1968	2
1969	2
1970	1
1971	4
1972	0
1973	2
1974	1
1975	1
1976	0
1977	0
1978	2
1979	0
1980	3
1981	0
1982	0
1983	1
1984	0
1985	2
1986	2
1987	3
1988	1
1989	1
1990	1
1991	0
1992	3
1993	0
1994	2
1995	1
1996	2
1997	3
1998	0
1999	2
2000	3
2001	1
2002	2
2003	1
2004	1
2005	2
2006	1
2007	1
2008	4
2009	1
2010	0
2011	3
2012	1
2013	2
2014	0
2015	2
2016	0
2017	0
2018	0
2019	0
2020	0
2021	0
2022	0
2023	0
2024	0
2025	0
2026	0
2027	0
2028	0
2029	0
2030	0
2031	0
2032	0
2033	0
2034	0
2035	0
2036	0
2037	0
2038	0
2039	0
2040	0
2041	0
2042	0
2043	0
2044	0
2045	0
2046	0
2047	0
