0	0
1	0
2	0
3	0
4	0
5	0
6	0
7	0
8	3
9	115
10	439
11	783
12	3800
13	16654
14	9519
15	5002
16	3425
17	2698
18	2196
19	1963
20	1823
21	1718
22	1569
23	1450
24	1410
25	1346
26	1374
27	1464
28	1489
29	1599
30	1555
31	1515
32	1503
33	1411
34	1354
35	1269
36	1222
37	1201
38	1154
39	1158
40	1093
41	1216
42	1152
43	1138
44	1199
45	1217
46	1298
47	1325
48	1479
49	1544
50	1652
51	1741
52	1789
53	1768
54	1656
55	1549
56	1421
57	1463
58	1428
59	1436
60	1458
61	1495
62	1645
63	1710
64	1685
65	1783
66	1829
67	1827
68	1784
69	1830
70	1775
71	1764
72	1698
73	1613
74	1598
75	1580
76	1579
77	1540
78	1619
79	1568
80	1559
81	1490
82	1496
83	1597
84	1522
85	1574
86	1451
87	1540
88	1519
89	1571
90	1551
91	1531
92	1567
93	1515
94	1516
95	1513
96	1672
97	1692
98	1749
99	1838
100	1883
101	1902
102	1935
103	1967
104	1823
105	1856
106	1794
107	1813
108	1724
109	1653
110	1636
111	1506
112	1579
113	1522
114	1504
115	1511
116	1505
117	1460
118	1492
119	1451
120	1499
121	1521
122	1514
123	1487
124	1482
125	1500
126	1623
127	1582
128	1509
129	1550
130	1582
131	1466
132	1462
133	1429
134	1499
135	1487
136	1401
137	1432
138	1488
139	1396
140	1357
141	1376
142	1416
143	1453
144	1353
145	1409
146	1376
147	1404
148	1358
149	1299
150	1308
151	1258
152	1212
153	1273
154	1173
155	1118
156	1167
157	1134
158	1146
159	1120
160	1177
161	1161
162	1164
163	1124
164	1167
165	1139
166	1134
167	1154
168	1165
169	1116
170	1123
171	1109
172	1064
173	1039
174	1112
175	1039
176	985
177	979
178	997
179	911
180	947
181	949
182	875
183	901
184	873
185	897
186	888
187	881
188	862
189	883
190	894
191	905
192	832
193	884
194	880
195	935
196	936
197	851
198	875
199	906
200	888
201	862
202	919
203	822
204	839
205	841
206	850
207	804
208	777
209	778
210	703
211	756
212	816
213	738
214	746
215	710
216	715
217	699
218	709
219	721
220	699
221	708
222	667
223	696
224	668
225	702
226	696
227	664
228	678
229	730
230	708
231	662
232	664
233	771
234	706
235	676
236	700
237	713
238	742
239	670
240	667
241	703
242	721
243	727
244	652
245	652
246	647
247	639
248	674
249	641
250	598
251	641
252	599
253	600
254	590
255	581
256	552
257	555
258	565
259	531
260	553
261	550
262	574
263	555
264	566
265	571
266	540
267	530
268	554
269	552
270	528
271	585
272	564
273	519
274	491
275	505
276	517
277	495
278	502
279	502
280	529
281	501
282	523
283	510
284	491
285	474
286	488
287	477
288	457
289	450
290	515
291	469
292	473
293	459
294	484
295	456
296	457
297	478
298	478
299	484
300	519
301	510
302	435
303	491
304	490
305	484
306	504
307	545
308	564
309	505
310	493
311	513
312	548
313	571
314	509
315	531
316	540
317	562
318	593
319	569
320	587
321	581
322	544
323	555
324	561
325	530
326	520
327	547
328	631
329	591
330	563
331	577
332	544
333	575
334	554
335	566
336	557
337	561
338	541
339	556
340	535
341	569
342	568
343	588
344	583
345	551
346	534
347	536
348	508
349	550
350	506
351	543
352	518
353	465
354	454
355	462
356	450
357	422
358	457
359	466
360	440
361	413
362	399
363	404
364	403
365	373
366	363
367	358
368	363
369	341
370	328
371	364
372	351
373	352
374	357
375	355
376	354
377	382
378	379
379	339
380	339
381	377
382	427
383	365
384	378
385	401
386	369
387	384
388	406
389	399
390	365
391	427
392	393
393	374
394	385
395	410
396	434
397	395
398	403
399	415
400	381
401	414
402	364
403	432
404	377
405	402
406	400
407	399
408	410
409	389
410	419
411	371
412	428
413	387
414	414
415	410
416	414
417	354
418	370
419	353
420	357
421	372
422	353
423	370
424	368
425	370
426	319
427	365
428	325
429	336
430	322
431	311
432	322
433	302
434	302
435	309
436	312
437	308
438	304
439	295
440	325
441	284
442	307
443	312
444	300
445	301
446	283
447	312
448	266
449	312
450	304
451	278
452	283
453	284
454	267
455	260
456	257
457	269
458	265
459	288
460	285
461	281
462	253
463	283
464	270
465	261
466	271
467	276
468	276
469	281
470	263
471	278
472	275
473	256
474	290
475	288
476	256
477	290
478	296
479	269
480	245
481	287
482	250
483	277
484	263
485	252
486	251
487	257
488	251
489	257
490	274
491	265
492	276
493	270
494	238
495	259
496	264
497	250
498	264
499	247
500	259
501	242
502	234
503	246
504	246
505	262
506	246
507	234
508	279
509	251
510	251
511	231
512	253
513	251
514	262
515	235
516	230
517	236
518	273
519	240
520	231
521	235
522	239
523	246
524	269
525	213
526	272
527	208
528	252
529	232
530	242
531	232
532	227
533	230
534	252
535	262
536	252
537	260
538	256
539	225
540	237
541	259
542	223
543	251
544	223
545	256
546	212
547	231
548	252
549	234
550	240
551	242
552	222
553	235
554	238
555	223
556	221
557	250
558	233
559	230
560	182
561	247
562	228
563	209
564	225
565	232
566	233
567	204
568	200
569	202
570	215
571	189
572	217
573	197
574	224
575	195
576	192
577	235
578	204
579	225
580	242
581	219
582	230
583	185
584	232
585	210
586	217
587	213
588	231
589	211
590	216
591	210
592	220
593	231
594	245
595	218
596	212
597	211
598	188
599	216
600	219
601	220
602	235
603	208
604	231
605	208
606	187
607	195
608	237
609	220
610	214
611	225
612	199
613	218
614	206
615	223
616	208
617	190
618	221
619	204
620	184
621	185
622	177
623	193
624	203
625	201
626	179
627	206
628	216
629	171
630	195
631	180
632	199
633	184
634	179
635	205
636	219
637	198
638	204
639	199
640	195
641	243
642	180
643	171
644	162
645	182
646	171
647	185
648	178
649	184
650	157
651	207
652	206
653	184
654	205
655	169
656	170
657	182
658	165
659	177
660	151
661	185
662	168
663	170
664	141
665	154
666	158
667	145
668	168
669	182
670	169
671	153
672	148
673	151
674	170
675	167
676	160
677	132
678	156
679	147
680	154
681	132
682	142
683	152
684	142
685	152
686	145
687	152
688	171
689	151
690	143
691	137
692	145
693	157
694	133
695	160
696	161
697	151
698	159
699	153
700	150
701	143
702	168
703	164
704	158
705	157
706	140
707	153
708	129
709	162
710	139
711	147
712	142
713	134
714	137
715	184
716	152
717	122
718	160
719	149
720	138
721	149
722	162
723	189
724	150
725	163
726	156
727	158
728	157
729	151
730	171
731	169
732	164
733	140
734	166
735	171
736	131
737	159
738	164
739	165
740	136
741	161
742	159
743	150
744	139
745	151
746	164
747	154
748	140
749	131
750	160
751	148
752	147
753	168
754	178
755	155
756	142
757	149
758	129
759	145
760	132
761	138
762	138
763	165
764	134
765	140
766	127
767	161
768	164
769	146
770	147
771	137
772	149
773	148
774	152
775	135
776	135
777	144
778	141
779	144
780	139
781	116
782	151
783	132
784	136
785	136
786	124
787	138
788	128
789	134
790	126
791	137
792	123
793	113
794	112
795	128
796	120
797	122
798	123
799	124
800	114
801	130
802	128
803	121
804	106
805	126
806	138
807	101
808	117
809	100
810	123
811	116
812	112
813	108
814	120
815	109
816	111
817	122
818	101
819	123
820	98
821	110
822	115
823	92
824	100
825	112
826	118
827	82
828	95
829	117
830	99
831	120
832	102
833	107
834	100
835	96
836	98
837	97
838	103
839	123
840	104
841	100
842	86
843	92
844	90
845	75
846	83
847	99
848	82
849	100
850	99
851	105
852	100
853	82
854	80
855	94
856	106
857	65
858	91
859	81
860	81
861	80
862	80
863	73
864	95
865	106
866	95
867	90
868	76
869	80
870	86
871	75
872	82
873	73
874	68
875	74
876	91
877	85
878	66
879	71
880	73
881	71
882	87
883	73
884	83
885	68
886	85
887	85
888	72
889	97
890	102
891	82
892	82
893	78
894	79
895	68
896	67
897	89
898	93
899	93
900	75
901	100
902	69
903	75
904	82
905	100
906	87
907	102
908	99
909	94
910	105
911	95
912	113
913	109
914	125
915	107
916	88
917	131
918	98
919	102
920	118
921	135
922	124
923	124
924	170
925	137
926	178
927	148
928	147
929	160
930	164
931	176
932	214
933	188
934	172
935	203
936	186
937	202
938	240
939	218
940	214
941	237
942	205
943	242
944	232
945	244
946	252
947	260
948	227
949	257
950	245
951	261
952	234
953	253
954	256
955	262
956	260
957	298
958	259
959	271
960	268
961	218
962	250
963	242
964	247
965	227
966	237
967	227
968	200
969	208
970	211
971	197
972	182
973	206
974	173
975	178
976	160
977	177
978	138
979	153
980	151
981	126
982	163
983	136
984	130
985	120
986	106
987	96
988	120
989	102
990	93
991	88
992	89
993	92
994	86
995	99
996	95
997	80
998	75
999	67
1000	75
1001	61
1002	65
1003	66
1004	65
1005	63
1006	72
1007	56
1008	63
1009	74
1010	76
1011	60
1012	64
1013	81
1014	63
1015	50
1016	63
1017	50
1018	50
1019	73
1020	63
1021	59
1022	64
1023	60
1024	59
1025	61
1026	66
1027	69
1028	57
1029	54
1030	59
1031	66
1032	52
1033	69
1034	64
1035	72
1036	44
1037	67
1038	59
1039	64
1040	74
1041	65
1042	44
1043	65
1044	65
1045	56
1046	48
1047	57
1048	66
1049	59
1050	62
1051	53
1052	55
1053	68
1054	56
1055	56
1056	60
1057	61
1058	55
1059	50
1060	54
1061	50
1062	69
1063	46
1064	44
1065	43
1066	56
1067	54
1068	54
1069	47
1070	61
1071	57
1072	49
1073	50
1074	55
1075	63
1076	54
1077	66
1078	44
1079	44
1080	39
1081	54
1082	53
1083	44
1084	50
1085	57
1086	41
1087	52
1088	48
1089	70
1090	47
1091	53
1092	57
1093	54
1094	46
1095	53
1096	37
1097	52
1098	41
1099	43
1100	53
1101	44
1102	50
1103	49
1104	60
1105	49
1106	45
1107	54
1108	64
1109	47
1110	48
1111	60
1112	48
1113	37
1114	41
1115	60
1116	47
1117	39
1118	54
1119	55
1120	54
1121	52
1122	31
1123	58
1124	49
1125	48
1126	49
1127	33
1128	49
1129	47
1130	46
1131	39
1132	52
1133	49
1134	63
1135	54
1136	62
1137	55
1138	51
1139	49
1140	59
1141	47
1142	48
1143	48
1144	61
1145	38
1146	54
1147	44
1148	50
1149	44
1150	58
1151	58
1152	54
1153	64
1154	55
1155	52
1156	45
1157	57
1158	47
1159	48
1160	47
1161	38
1162	63
1163	54
1164	37
1165	43
1166	46
1167	41
1168	46
1169	49
1170	48
1171	43
1172	42
1173	39
1174	41
1175	47
1176	41
1177	39
1178	42
1179	37
1180	51
1181	42
1182	39
1183	40
1184	41
1185	43
1186	41
1187	47
1188	29
1189	41
1190	35
1191	33
1192	36
1193	39
1194	35
1195	45
1196	42
1197	39
1198	35
1199	47
1200	38
1201	36
1202	31
1203	29
1204	34
1205	36
1206	38
1207	34
1208	31
1209	47
1210	34
1211	29
1212	39
1213	31
1214	25
1215	35
1216	42
1217	26
1218	31
1219	44
1220	32
1221	32
1222	33
1223	35
1224	42
1225	33
1226	40
1227	25
1228	30
1229	32
1230	26
1231	31
1232	44
1233	40
1234	42
1235	33
1236	35
1237	31
1238	28
1239	32
1240	15
1241	29
1242	26
1243	30
1244	31
1245	35
1246	31
1247	33
1248	37
1249	42
1250	33
1251	24
1252	37
1253	23
1254	28
1255	29
1256	28
1257	28
1258	36
1259	27
1260	31
1261	29
1262	29
1263	23
1264	28
1265	18
1266	40
1267	24
1268	37
1269	38
1270	32
1271	28
1272	22
1273	23
1274	26
1275	41
1276	37
1277	39
1278	28
1279	30
1280	34
1281	34
1282	29
1283	33
1284	27
1285	32
1286	32
1287	33
1288	25
1289	27
1290	28
1291	25
1292	29
1293	24
1294	33
1295	28
1296	29
1297	28
1298	22
1299	21
1300	30
1301	26
1302	33
1303	30
1304	28
1305	33
1306	30
1307	23
1308	28
1309	29
1310	35
1311	32
1312	19
1313	29
1314	33
1315	30
1316	20
1317	22
1318	29
1319	32
1320	28
1321	22
1322	22
1323	24
1324	24
1325	32
1326	26
1327	20
1328	27
1329	27
1330	32
1331	21
1332	27
1333	26
1334	25
1335	21
1336	36
1337	26
1338	21
1339	23
1340	23
1341	28
1342	23
1343	29
1344	33
1345	30
1346	30
1347	27
1348	29
1349	26
1350	29
1351	28
1352	30
1353	27
1354	32
1355	21
1356	24
1357	32
1358	33
1359	30
1360	29
1361	28
1362	34
1363	22
1364	27
1365	32
1366	27
1367	21
1368	34
1369	42
1370	29
1371	24
1372	32
1373	38
1374	31
1375	29
1376	41
1377	38
1378	25
1379	32
1380	31
1381	25
1382	34
1383	25
1384	32
1385	27
1386	22
1387	25
1388	33
1389	28
1390	30
1391	25
1392	25
1393	31
1394	22
1395	29
1396	25
1397	38
1398	22
1399	29
1400	31
1401	35
1402	30
1403	24
1404	22
1405	24
1406	26
1407	25
1408	24
1409	31
1410	26
1411	33
1412	25
1413	33
1414	19
1415	27
1416	27
1417	24
1418	28
1419	22
1420	29
1421	29
1422	20
1423	27
1424	25
1425	23
1426	24
1427	33
1428	19
1429	28
1430	27
1431	27
1432	25
1433	40
1434	20
1435	20
1436	25
1437	26
1438	23
1439	21
1440	22
1441	19
1442	29
1443	30
1444	16
1445	36
1446	21
1447	24
1448	17
1449	19
1450	21
1451	31
1452	20
1453	24
1454	32
1455	23
1456	24
1457	21
1458	21
1459	22
1460	23
1461	22
1462	25
1463	26
1464	25
1465	19
1466	21
1467	24
1468	26
1469	26
1470	28
1471	32
1472	31
1473	23
1474	31
1475	24
1476	27
1477	25
1478	27
1479	26
1480	33
1481	26
1482	28
1483	17
1484	20
1485	26
1486	16
1487	12
1488	22
1489	29
1490	20
1491	21
1492	19
1493	12
1494	23
1495	27
1496	23
1497	23
1498	23
1499	28
1500	19
1501	15
1502	31
1503	22
1504	25
1505	17
1506	15
1507	27
1508	28
1509	12
1510	20
1511	18
1512	19
1513	20
1514	20
1515	24
1516	21
1517	18
1518	17
1519	25
1520	24
1521	19
1522	27
1523	28
1524	21
1525	14
1526	21
1527	17
1528	19
1529	18
1530	24
1531	21
1532	28
1533	24
1534	26
1535	17
1536	18
1537	21
1538	20
1539	23
1540	21
1541	15
1542	17
1543	19
1544	31
1545	17
1546	24
1547	19
1548	16
1549	24
1550	15
1551	10
1552	19
1553	29
1554	18
1555	19
1556	15
1557	26
1558	18
1559	17
1560	16
1561	15
1562	15
1563	20
1564	19
1565	19
1566	27
1567	16
1568	17
1569	18
1570	23
1571	21
1572	16
1573	21
1574	18
1575	15
1576	15
1577	17
1578	17
1579	11
1580	28
1581	16
1582	24
1583	20
1584	20
1585	23
1586	23
1587	15
1588	18
1589	21
1590	14
1591	13
1592	17
1593	25
1594	18
1595	15
1596	17
1597	18
1598	16
1599	24
1600	11
1601	13
1602	20
1603	15
1604	23
1605	13
1606	21
1607	18
1608	21
1609	11
1610	19
1611	13
1612	16
1613	21
1614	21
1615	17
1616	13
1617	16
1618	15
1619	20
1620	13
1621	15
1622	22
1623	16
1624	14
1625	19
1626	11
1627	20
1628	17
1629	21
1630	17
1631	22
1632	12
1633	16
1634	12
1635	15
1636	7
1637	15
1638	15
1639	28
1640	22
1641	14
1642	16
1643	16
1644	18
1645	19
1646	23
1647	26
1648	16
1649	21
1650	21
1651	20
1652	24
1653	14
1654	16
1655	16
1656	16
1657	14
1658	15
1659	16
1660	21
1661	22
1662	16
1663	18
1664	19
1665	16
1666	27
1667	27
1668	15
1669	22
1670	15
1671	22
1672	19
1673	21
1674	14
1675	20
1676	21
1677	21
1678	19
1679	20
1680	19
1681	16
1682	12
1683	16
1684	21
1685	19
1686	31
1687	20
1688	21
1689	30
1690	32
1691	27
1692	18
1693	24
1694	23
1695	30
1696	24
1697	26
1698	29
1699	24
1700	31
1701	27
1702	16
1703	26
1704	20
1705	31
1706	34
1707	19
1708	25
1709	26
1710	14
1711	26
1712	23
1713	39
1714	26
1715	28
1716	30
1717	17
1718	27
1719	22
1720	23
1721	33
1722	24
1723	28
1724	31
1725	29
1726	25
1727	27
1728	27
1729	34
1730	24
1731	30
1732	27
1733	22
1734	21
1735	27
1736	26
1737	24
1738	16
1739	31
1740	31
1741	22
1742	24
1743	24
1744	24
1745	18
1746	26
1747	14
1748	16
1749	22
1750	14
1751	20
1752	20
1753	21
1754	21
1755	20
1756	12
1757	19
1758	21
1759	15
1760	19
1761	25
1762	11
1763	21
1764	17
1765	12
1766	14
1767	20
1768	12
1769	21
1770	21
1771	16
1772	14
1773	14
1774	19
1775	19
1776	11
1777	16
1778	14
1779	14
1780	9
1781	8
1782	13
1783	15
1784	14
1785	14
1786	15
1787	15
1788	7
1789	12
1790	18
1791	11
1792	23
1793	16
1794	15
1795	12
1796	13
1797	12
1798	19
1799	19
1800	10
1801	13
1802	17
1803	14
1804	17
1805	22
1806	9
1807	19
1808	12
1809	8
1810	11
1811	17
1812	15
1813	18
1814	8
1815	19
1816	8
1817	16
1818	22
1819	13
1820	11
1821	8
1822	14
1823	12
1824	15
1825	12
1826	9
1827	13
1828	14
1829	12
1830	18
1831	17
1832	12
1833	9
1834	13
1835	14
1836	10
1837	15
1838	9
1839	14
1840	12
1841	11
1842	8
1843	15
1844	6
1845	9
1846	14
1847	12
1848	9
1849	26
1850	11
1851	8
1852	7
1853	16
1854	17
1855	11
1856	10
1857	17
1858	12
1859	13
1860	11
1861	14
1862	10
1863	11
1864	10
1865	19
1866	17
1867	18
1868	8
1869	17
1870	17
1871	18
1872	21
1873	12
1874	12
1875	10
1876	17
1877	10
1878	12
1879	17
1880	11
1881	14
1882	15
1883	13
1884	11
1885	9
1886	11
1887	11
1888	10
1889	21
1890	18
1891	10
1892	18
1893	15
1894	12
1895	11
1896	11
1897	8
1898	9
1899	8
1900	11
1901	13
1902	16
1903	16
1904	15
1905	11
1906	14
1907	16
1908	14
1909	15
1910	20
1911	13
1912	11
1913	10
1914	9
1915	11
1916	11
1917	14
1918	11
1919	12
1920	12
1921	7
1922	13
1923	11
1924	9
1925	17
1926	14
1927	8
1928	13
1929	11
1930	7
1931	13
1932	8
1933	5
1934	10
1935	8
1936	10
1937	8
1938	16
1939	15
1940	13
1941	13
1942	19
1943	14
1944	10
1945	14
1946	13
1947	13
1948	7
1949	12
1950	12
1951	6
1952	10
1953	7
1954	14
1955	7
1956	22
1957	12
1958	13
1959	13
1960	10
1961	16
1962	15
1963	13
1964	11
1965	9
1966	16
1967	18
1968	10
1969	9
1970	14
1971	10
1972	7
1973	9
1974	17
1975	16
1976	14
1977	13
1978	10
1979	12
1980	7
1981	13
1982	7
1983	8
1984	13
1985	6
1986	15
1987	12
1988	11
1989	10
1990	5
1991	14
1992	9
1993	15
1994	10
1995	12
1996	12
1997	17
1998	10
1999	13
2000	18
2001	13
2002	6
2003	15
2004	14
2005	10
2006	13
2007	7
2008	10
2009	13
2010	8
2011	17
2012	13
2013	12
2014	11
2015	10
2016	0
2017	0
2018	0
2019	0
2020	0
2021	0
2022	0
2023	0
2024	0
2025	0
2026	0
2027	0
2028	0
2029	0
2030	0
2031	0
2032	0
2033	0
2034	0
2035	0
2036	0
2037	0
2038	0
2039	0
2040	0
2041	0
2042	0
2043	0
2044	0
2045	0
2046	0
2047	0
