0	0
1	0
2	0
3	0
4	0
5	0
6	0
7	0
8	2
9	55
10	154
11	330
12	2347
13	10043
14	6270
15	3275
16	2096
17	1562
18	1205
19	1141
20	1012
21	930
22	775
23	779
24	739
25	701
26	749
27	797
28	783
29	872
30	895
31	895
32	807
33	829
34	769
35	727
36	652
37	643
38	628
39	680
40	682
41	681
42	644
43	699
44	593
45	610
46	708
47	733
48	827
49	884
50	969
51	960
52	980
53	893
54	880
55	811
56	788
57	790
58	736
59	833
60	812
61	852
62	869
63	961
64	920
65	953
66	999
67	1022
68	989
69	1016
70	1033
71	960
72	973
73	905
74	928
75	874
76	843
77	894
78	905
79	865
80	802
81	864
82	863
83	814
84	778
85	847
86	827
87	817
88	809
89	806
90	815
91	865
92	863
93	944
94	905
95	901
96	911
97	906
98	958
99	973
100	1054
101	1076
102	1097
103	1036
104	1055
105	1013
106	978
107	957
108	910
109	877
110	923
111	883
112	792
113	781
114	788
115	843
116	820
117	843
118	836
119	802
120	841
121	865
122	829
123	833
124	796
125	796
126	777
127	829
128	774
129	809
130	804
131	777
132	751
133	764
134	794
135	736
136	745
137	727
138	795
139	805
140	799
141	784
142	772
143	785
144	690
145	789
146	767
147	810
148	701
149	722
150	676
151	673
152	716
153	663
154	673
155	678
156	665
157	617
158	636
159	623
160	589
161	661
162	615
163	620
164	621
165	647
166	665
167	596
168	624
169	589
170	621
171	640
172	577
173	552
174	569
175	562
176	546
177	541
178	524
179	497
180	492
181	467
182	504
183	474
184	453
185	472
186	443
187	509
188	516
189	476
190	515
191	461
192	471
193	484
194	509
195	488
196	473
197	499
198	487
199	429
200	504
201	494
202	430
203	466
204	455
205	432
206	426
207	466
208	452
209	450
210	405
211	406
212	422
213	414
214	398
215	416
216	399
217	401
218	371
219	360
220	389
221	362
222	362
223	403
224	371
225	401
226	379
227	372
228	356
229	384
230	352
231	408
232	392
233	385
234	382
235	389
236	385
237	388
238	386
239	384
240	360
241	407
242	366
243	400
244	346
245	327
246	329
247	311
248	370
249	324
250	333
251	307
252	355
253	316
254	332
255	330
256	315
257	305
258	331
259	309
260	316
261	297
262	315
263	310
264	289
265	282
266	318
267	299
268	301
269	305
270	285
271	305
272	289
273	298
274	299
275	286
276	294
277	270
278	310
279	265
280	287
281	284
282	255
283	282
284	277
285	263
286	252
287	296
288	251
289	245
290	274
291	258
292	246
293	263
294	296
295	290
296	274
297	263
298	271
299	237
300	280
301	259
302	274
303	231
304	270
305	286
306	281
307	317
308	309
309	267
310	321
311	317
312	285
313	290
314	318
315	278
316	323
317	288
318	320
319	276
320	295
321	295
322	338
323	292
324	303
325	306
326	314
327	333
328	321
329	296
330	324
331	308
332	331
333	305
334	303
335	295
336	281
337	283
338	317
339	321
340	296
341	319
342	290
343	304
344	317
345	312
346	319
347	289
348	296
349	253
350	297
351	287
352	247
353	263
354	231
355	228
356	221
357	239
358	232
359	225
360	230
361	193
362	248
363	210
364	223
365	186
366	188
367	213
368	208
369	213
370	204
371	185
372	205
373	187
374	199
375	216
376	188
377	229
378	192
379	203
380	177
381	217
382	193
383	207
384	205
385	188
386	227
387	222
388	205
389	207
390	197
391	234
392	213
393	193
394	228
395	230
396	232
397	234
398	232
399	210
400	220
401	241
402	211
403	224
404	226
405	210
406	222
407	251
408	236
409	229
410	200
411	209
412	240
413	232
414	217
415	219
416	188
417	196
418	230
419	194
420	195
421	218
422	179
423	188
424	182
425	190
426	167
427	158
428	177
429	204
430	163
431	164
432	183
433	164
434	178
435	192
436	190
437	165
438	178
439	156
440	157
441	147
442	142
443	170
444	162
445	169
446	152
447	147
448	151
449	159
450	142
451	138
452	165
453	153
454	144
455	136
456	140
457	136
458	131
459	164
460	144
461	152
462	146
463	150
464	141
465	132
466	129
467	125
468	166
469	135
470	130
471	147
472	135
473	162
474	177
475	146
476	150
477	136
478	162
479	153
480	137
481	152
482	161
483	121
484	147
485	134
486	146
487	141
488	140
489	137
490	156
491	132
492	149
493	139
494	145
495	145
496	122
497	129
498	140
499	119
500	153
501	127
502	143
503	128
504	146
505	137
506	135
507	122
508	118
509	157
510	122
511	135
512	145
513	120
514	114
515	144
516	153
517	139
518	137
519	125
520	138
521	113
522	112
523	138
524	119
525	125
526	144
527	120
528	131
529	141
530	148
531	126
532	109
533	112
534	142
535	136
536	148
537	125
538	108
539	117
540	143
541	125
542	116
543	123
544	139
545	109
546	132
547	116
548	128
549	145
550	116
551	120
552	121
553	116
554	119
555	122
556	139
557	117
558	111
559	122
560	134
561	137
562	94
563	124
564	119
565	123
566	126
567	140
568	130
569	112
570	131
571	100
572	114
573	104
574	109
575	103
576	122
577	152
578	112
579	120
580	119
581	117
582	88
583	117
584	108
585	140
586	125
587	107
588	138
589	108
590	123
591	123
592	111
593	113
594	112
595	112
596	122
597	120
598	110
599	123
600	116
601	121
602	102
603	118
604	117
605	116
606	111
607	103
608	107
609	112
610	117
611	115
612	102
613	121
614	99
615	125
616	97
617	107
618	118
619	131
620	102
621	111
622	133
623	97
624	116
625	109
626	100
627	113
628	107
629	95
630	94
631	124
632	121
633	99
634	114
635	122
636	98
637	99
638	105
639	130
640	105
641	110
642	96
643	111
644	115
645	96
646	105
647	97
648	86
649	107
650	110
651	93
652	107
653	78
654	105
655	91
656	93
657	93
658	82
659	100
660	100
661	106
662	103
663	92
664	90
665	79
666	73
667	78
668	88
669	82
670	92
671	93
672	93
673	78
674	81
675	77
676	81
677	87
678	77
679	65
680	77
681	69
682	95
683	89
684	67
685	84
686	65
687	84
688	96
689	103
690	71
691	87
692	77
693	83
694	69
695	94
696	73
697	86
698	78
699	96
700	67
701	85
702	78
703	82
704	81
705	75
706	92
707	70
708	96
709	82
710	79
711	88
712	87
713	78
714	80
715	78
716	91
717	76
718	88
719	74
720	90
721	83
722	84
723	93
724	93
725	90
726	84
727	108
728	82
729	76
730	75
731	91
732	74
733	92
734	93
735	84
736	76
737	72
738	100
739	89
740	79
741	83
742	91
743	70
744	83
745	105
746	99
747	81
748	70
749	80
750	96
751	83
752	76
753	88
754	77
755	86
756	89
757	79
758	100
759	78
760	70
761	69
762	80
763	85
764	75
765	87
766	59
767	55
768	76
769	74
770	77
771	56
772	79
773	82
774	81
775	80
776	71
777	87
778	66
779	87
780	76
781	78
782	51
783	71
784	80
785	79
786	59
787	75
788	76
789	71
790	65
791	69
792	62
793	66
794	65
795	79
796	69
797	73
798	76
799	66
800	69
801	60
802	60
803	71
804	67
805	66
806	63
807	64
808	50
809	65
810	78
811	55
812	61
813	63
814	68
815	56
816	75
817	57
818	65
819	65
820	50
821	57
822	47
823	50
824	59
825	57
826	48
827	51
828	52
829	70
830	55
831	47
832	60
833	55
834	52
835	49
836	45
837	63
838	49
839	43
840	48
841	46
842	50
843	51
844	57
845	57
846	48
847	45
848	46
849	33
850	51
851	49
852	47
853	53
854	30
855	45
856	51
857	52
858	38
859	44
860	43
861	48
862	45
863	33
864	38
865	47
866	38
867	45
868	48
869	42
870	51
871	41
872	37
873	46
874	39
875	45
876	54
877	44
878	48
879	36
880	50
881	45
882	40
883	36
884	45
885	39
886	37
887	42
888	50
889	42
890	32
891	47
892	47
893	51
894	48
895	32
896	36
897	52
898	48
899	42
900	40
901	42
902	36
903	47
904	52
905	52
906	47
907	51
908	55
909	55
910	62
911	51
912	58
913	64
914	56
915	73
916	53
917	64
918	73
919	74
920	63
921	64
922	79
923	73
924	81
925	85
926	81
927	82
928	85
929	90
930	102
931	96
932	104
933	95
934	107
935	97
936	120
937	136
938	112
939	113
940	125
941	137
942	127
943	132
944	123
945	113
946	143
947	141
948	137
949	121
950	138
951	133
952	135
953	132
954	131
955	144
956	137
957	134
958	130
959	132
960	124
961	132
962	128
963	117
964	108
965	112
966	116
967	106
968	110
969	112
970	114
971	111
972	117
973	108
974	80
975	89
976	80
977	98
978	91
979	81
980	88
981	76
982	63
983	71
984	53
985	41
986	52
987	52
988	35
989	62
990	43
991	53
992	41
993	33
994	44
995	48
996	41
997	44
998	40
999	44
1000	27
1001	38
1002	39
1003	38
1004	41
1005	36
1006	38
1007	33
1008	29
1009	26
1010	38
1011	36
1012	31
1013	24
1014	32
1015	29
1016	34
1017	33
1018	37
1019	36
1020	27
1021	26
1022	32
1023	27
1024	34
1025	29
1026	36
1027	18
1028	30
1029	33
1030	24
1031	31
1032	28
1033	38
1034	31
1035	34
1036	34
1037	41
1038	27
1039	35
1040	32
1041	37
1042	29
1043	37
1044	26
1045	28
1046	28
1047	23
1048	42
1049	20
1050	27
1051	36
1052	36
1053	23
1054	41
1055	27
1056	25
1057	29
1058	26
1059	23
1060	27
1061	29
1062	30
1063	21
1064	22
1065	29
1066	27
1067	27
1068	30
1069	27
1070	25
1071	24
1072	42
1073	24
1074	31
1075	23
1076	23
1077	26
1078	25
1079	27
1080	18
1081	24
1082	30
1083	28
1084	24
1085	23
1086	33
1087	23
1088	32
1089	27
1090	21
1091	23
1092	24
1093	24
1094	24
1095	28
1096	26
1097	36
1098	22
1099	28
1100	28
1101	29
1102	22
1103	26
1104	22
1105	19
1106	31
1107	29
1108	25
1109	27
1110	15
1111	29
1112	21
1113	21
1114	18
1115	31
1116	24
1117	33
1118	22
1119	23
1120	24
1121	26
1122	28
1123	21
1124	27
1125	27
1126	34
1127	22
1128	19
1129	21
1130	22
1131	22
1132	31
1133	18
1134	19
1135	20
1136	24
1137	25
1138	23
1139	26
1140	26
1141	15
1142	27
1143	19
1144	32
1145	26
1146	22
1147	28
1148	21
1149	23
1150	28
1151	25
1152	25
1153	25
1154	27
1155	33
1156	27
1157	19
1158	21
1159	29
1160	29
1161	19
1162	23
1163	22
1164	17
1165	29
1166	25
1167	23
1168	9
1169	24
1170	16
1171	23
1172	23
1173	21
1174	25
1175	29
1176	24
1177	28
1178	13
1179	18
1180	25
1181	16
1182	13
1183	26
1184	23
1185	17
1186	34
1187	21
1188	18
1189	25
1190	18
1191	17
1192	21
1193	13
1194	13
1195	21
1196	22
1197	24
1198	26
1199	11
1200	12
1201	19
1202	16
1203	12
1204	18
1205	20
1206	19
1207	17
1208	23
1209	18
1210	16
1211	19
1212	21
1213	26
1214	21
1215	24
1216	17
1217	17
1218	14
1219	18
1220	21
1221	12
1222	13
1223	16
1224	26
1225	15
1226	14
1227	21
1228	21
1229	14
1230	15
1231	11
1232	16
1233	14
1234	16
1235	11
1236	11
1237	20
1238	17
1239	12
1240	15
1241	15
1242	13
1243	19
1244	15
1245	12
1246	17
1247	12
1248	15
1249	14
1250	21
1251	12
1252	20
1253	18
1254	18
1255	16
1256	12
1257	12
1258	8
1259	21
1260	15
1261	18
1262	13
1263	15
1264	13
1265	18
1266	14
1267	17
1268	11
1269	23
1270	15
1271	15
1272	17
1273	11
1274	17
1275	21
1276	11
1277	14
1278	11
1279	11
1280	15
1281	17
1282	19
1283	12
1284	16
1285	15
1286	21
1287	14
1288	10
1289	17
1290	13
1291	13
1292	17
1293	15
1294	18
1295	26
1296	17
1297	12
1298	16
1299	13
1300	16
1301	10
1302	12
1303	13
1304	19
1305	24
1306	17
1307	24
1308	12
1309	18
1310	23
1311	21
1312	16
1313	18
1314	20
1315	17
1316	15
1317	10
1318	14
1319	13
1320	15
1321	12
1322	14
1323	17
1324	9
1325	19
1326	18
1327	23
1328	19
1329	14
1330	16
1331	12
1332	25
1333	21
1334	19
1335	12
1336	12
1337	13
1338	11
1339	13
1340	13
1341	11
1342	10
1343	19
1344	14
1345	23
1346	9
1347	8
1348	12
1349	19
1350	20
1351	15
1352	12
1353	13
1354	17
1355	9
1356	18
1357	9
1358	10
1359	16
1360	14
1361	10
1362	12
1363	12
1364	19
1365	16
1366	9
1367	14
1368	25
1369	18
1370	10
1371	9
1372	16
1373	11
1374	19
1375	8
1376	18
1377	13
1378	16
1379	19
1380	17
1381	23
1382	12
1383	18
1384	17
1385	26
1386	22
1387	16
1388	16
1389	15
1390	16
1391	20
1392	13
1393	12
1394	14
1395	8
1396	19
1397	19
1398	17
1399	11
1400	14
1401	14
1402	15
1403	20
1404	17
1405	17
1406	17
1407	14
1408	12
1409	9
1410	15
1411	15
1412	8
1413	17
1414	21
1415	10
1416	13
1417	10
1418	14
1419	20
1420	11
1421	19
1422	18
1423	12
1424	12
1425	19
1426	7
1427	12
1428	18
1429	8
1430	11
1431	8
1432	15
1433	17
1434	10
1435	18
1436	7
1437	10
1438	10
1439	10
1440	11
1441	12
1442	21
1443	12
1444	13
1445	17
1446	15
1447	12
1448	14
1449	19
1450	14
1451	10
1452	15
1453	14
1454	15
1455	11
1456	12
1457	13
1458	13
1459	15
1460	12
1461	17
1462	19
1463	16
1464	13
1465	20
1466	7
1467	16
1468	11
1469	13
1470	18
1471	10
1472	9
1473	11
1474	17
1475	12
1476	10
1477	14
1478	13
1479	10
1480	9
1481	15
1482	11
1483	10
1484	13
1485	16
1486	19
1487	13
1488	15
1489	10
1490	14
1491	18
1492	9
1493	10
1494	7
1495	14
1496	15
1497	11
1498	15
1499	12
1500	16
1501	14
1502	15
1503	14
1504	14
1505	13
1506	10
1507	11
1508	16
1509	10
1510	15
1511	13
1512	17
1513	12
1514	16
1515	12
1516	14
1517	5
1518	9
1519	14
1520	15
1521	12
1522	14
1523	15
1524	14
1525	11
1526	11
1527	10
1528	15
1529	18
1530	7
1531	9
1532	10
1533	9
1534	6
1535	11
1536	6
1537	12
1538	10
1539	11
1540	12
1541	7
1542	12
1543	11
1544	12
1545	11
1546	9
1547	5
1548	11
1549	8
1550	12
1551	11
1552	13
1553	9
1554	4
1555	12
1556	11
1557	15
1558	6
1559	6
1560	13
1561	9
1562	7
1563	13
1564	11
1565	12
1566	10
1567	9
1568	6
1569	8
1570	16
1571	12
1572	7
1573	11
1574	10
1575	8
1576	10
1577	14
1578	9
1579	5
1580	12
1581	12
1582	16
1583	8
1584	5
1585	12
1586	5
1587	8
1588	9
1589	11
1590	8
1591	9
1592	8
1593	4
1594	10
1595	9
1596	9
1597	10
1598	6
1599	11
1600	7
1601	14
1602	9
1603	12
1604	7
1605	11
1606	9
1607	13
1608	9
1609	13
1610	12
1611	8
1612	7
1613	11
1614	9
1615	9
1616	15
1617	7
1618	8
1619	15
1620	10
1621	13
1622	9
1623	9
1624	8
1625	12
1626	11
1627	8
1628	6
1629	9
1630	8
1631	7
1632	10
1633	9
1634	12
1635	9
1636	9
1637	10
1638	14
1639	11
1640	12
1641	14
1642	15
1643	10
1644	7
1645	11
1646	11
1647	7
1648	8
1649	9
1650	10
1651	12
1652	13
1653	11
1654	7
1655	11
1656	20
1657	8
1658	8
1659	14
1660	5
1661	13
1662	7
1663	13
1664	15
1665	9
1666	11
1667	7
1668	9
1669	14
1670	13
1671	11
1672	8
1673	16
1674	17
1675	7
1676	16
1677	13
1678	11
1679	17
1680	11
1681	14
1682	9
1683	18
1684	15
1685	10
1686	12
1687	12
1688	16
1689	13
1690	12
1691	16
1692	15
1693	15
1694	17
1695	8
1696	12
1697	11
1698	13
1699	9
1700	10
1701	20
1702	15
1703	13
1704	13
1705	15
1706	19
1707	15
1708	12
1709	13
1710	9
1711	12
1712	17
1713	8
1714	28
1715	18
1716	16
1717	14
1718	19
1719	18
1720	18
1721	14
1722	10
1723	7
1724	15
1725	10
1726	13
1727	17
1728	28
1729	11
1730	16
1731	15
1732	9
1733	6
1734	12
1735	15
1736	12
1737	8
1738	10
1739	8
1740	9
1741	8
1742	6
1743	12
1744	10
1745	9
1746	18
1747	10
1748	8
1749	10
1750	14
1751	7
1752	12
1753	13
1754	13
1755	11
1756	10
1757	9
1758	3
1759	8
1760	11
1761	3
1762	9
1763	11
1764	8
1765	8
1766	6
1767	7
1768	12
1769	11
1770	8
1771	3
1772	9
1773	9
1774	10
1775	17
1776	10
1777	9
1778	8
1779	5
1780	11
1781	10
1782	5
1783	4
1784	6
1785	9
1786	9
1787	6
1788	10
1789	7
1790	6
1791	11
1792	9
1793	4
1794	6
1795	4
1796	11
1797	7
1798	8
1799	8
1800	6
1801	12
1802	5
1803	6
1804	9
1805	11
1806	3
1807	6
1808	7
1809	14
1810	7
1811	8
1812	3
1813	8
1814	7
1815	6
1816	6
1817	6
1818	7
1819	4
1820	8
1821	6
1822	6
1823	10
1824	3
1825	11
1826	6
1827	12
1828	5
1829	4
1830	9
1831	5
1832	4
1833	5
1834	7
1835	4
1836	11
1837	12
1838	6
1839	8
1840	8
1841	7
1842	7
1843	8
1844	5
1845	7
1846	8
1847	5
1848	6
1849	10
1850	6
1851	8
1852	6
1853	10
1854	9
1855	6
1856	7
1857	10
1858	4
1859	6
1860	4
1861	4
1862	7
1863	7
1864	8
1865	6
1866	7
1867	5
1868	6
1869	8
1870	4
1871	7
1872	3
1873	6
1874	4
1875	7
1876	6
1877	7
1878	8
1879	8
1880	5
1881	9
1882	9
1883	6
1884	10
1885	7
1886	9
1887	4
1888	5
1889	4
1890	5
1891	7
1892	6
1893	5
1894	2
1895	9
1896	5
1897	9
1898	12
1899	6
1900	10
1901	6
1902	8
1903	12
1904	9
1905	6
1906	9
1907	6
1908	5
1909	6
1910	1
1911	7
1912	7
1913	6
1914	10
1915	2
1916	8
1917	8
1918	7
1919	3
1920	9
1921	5
1922	7
1923	9
1924	7
1925	7
1926	8
1927	5
1928	5
1929	6
1930	9
1931	5
1932	7
1933	8
1934	8
1935	4
1936	2
1937	8
1938	7
1939	8
1940	2
1941	7
1942	2
1943	5
1944	4
1945	9
1946	9
1947	4
1948	15
1949	4
1950	5
1951	8
1952	5
1953	7
1954	9
1955	4
1956	8
1957	6
1958	4
1959	6
1960	6
1961	13
1962	7
1963	6
1964	3
1965	6
1966	7
1967	7
1968	6
1969	9
1970	7
1971	2
1972	10
1973	6
1974	6
1975	6
1976	6
1977	7
1978	4
1979	3
1980	4
1981	11
1982	9
1983	6
1984	11
1985	6
1986	8
1987	5
1988	9
1989	4
1990	7
1991	7
1992	9
1993	4
1994	9
1995	15
1996	6
1997	8
1998	6
1999	5
2000	5
2001	6
2002	13
2003	4
2004	8
2005	3
2006	8
2007	11
2008	4
2009	4
2010	4
2011	6
2012	7
2013	3
2014	11
2015	5
2016	0
2017	0
2018	0
2019	0
2020	0
2021	0
2022	0
2023	0
2024	0
2025	0
2026	0
2027	0
2028	0
2029	0
2030	0
2031	0
2032	0
2033	0
2034	0
2035	0
2036	0
2037	0
2038	0
2039	0
2040	0
2041	0
2042	0
2043	0
2044	0
2045	0
2046	0
2047	0
