0	0
1	0
2	0
3	0
4	0
5	0
6	0
7	0
8	0
9	5
10	63
11	142
12	958
13	4087
14	2488
15	1176
16	761
17	644
18	569
19	526
20	560
21	562
22	509
23	519
24	458
25	440
26	442
27	518
28	470
29	485
30	549
31	569
32	574
33	549
34	469
35	550
36	475
37	534
38	501
39	572
40	577
41	572
42	575
43	663
44	604
45	575
46	610
47	746
48	674
49	707
50	789
51	748
52	796
53	864
54	832
55	852
56	905
57	879
58	911
59	981
60	1086
61	1244
62	1257
63	1355
64	1346
65	1340
66	1273
67	1250
68	1147
69	1085
70	1071
71	1069
72	1018
73	970
74	944
75	908
76	826
77	843
78	768
79	711
80	700
81	647
82	645
83	704
84	621
85	643
86	610
87	627
88	625
89	644
90	645
91	661
92	647
93	646
94	698
95	651
96	685
97	701
98	670
99	714
100	768
101	739
102	781
103	710
104	649
105	698
106	693
107	714
108	671
109	696
110	639
111	637
112	622
113	657
114	601
115	607
116	617
117	630
118	638
119	567
120	580
121	590
122	601
123	587
124	569
125	595
126	571
127	620
128	578
129	610
130	584
131	623
132	652
133	623
134	614
135	586
136	603
137	572
138	564
139	558
140	575
141	594
142	608
143	592
144	576
145	557
146	554
147	552
148	566
149	561
150	578
151	577
152	540
153	533
154	550
155	556
156	563
157	557
158	598
159	585
160	640
161	650
162	645
163	672
164	678
165	797
166	809
167	792
168	877
169	869
170	840
171	762
172	774
173	776
174	722
175	678
176	620
177	623
178	591
179	515
180	479
181	471
182	445
183	450
184	417
185	391
186	404
187	400
188	373
189	351
190	373
191	375
192	373
193	376
194	384
195	388
196	367
197	368
198	396
199	406
200	427
201	422
202	442
203	473
204	451
205	376
206	418
207	427
208	408
209	446
210	405
211	400
212	391
213	366
214	351
215	315
216	363
217	330
218	300
219	312
220	304
221	302
222	296
223	283
224	306
225	338
226	305
227	325
228	363
229	342
230	380
231	343
232	418
233	380
234	372
235	402
236	394
237	417
238	409
239	396
240	447
241	441
242	383
243	413
244	404
245	364
246	396
247	362
248	364
249	322
250	362
251	343
252	310
253	286
254	280
255	278
256	242
257	238
258	230
259	180
260	226
261	233
262	218
263	228
264	204
265	220
266	198
267	193
268	197
269	194
270	213
271	228
272	191
273	207
274	221
275	171
276	207
277	181
278	197
279	191
280	175
281	194
282	161
283	185
284	166
285	176
286	212
287	200
288	180
289	177
290	192
291	164
292	165
293	188
294	167
295	186
296	174
297	160
298	183
299	153
300	173
301	157
302	183
303	172
304	165
305	153
306	158
307	195
308	188
309	181
310	184
311	188
312	178
313	186
314	191
315	170
316	179
317	206
318	199
319	182
320	190
321	179
322	215
323	181
324	189
325	199
326	176
327	198
328	203
329	185
330	173
331	183
332	198
333	207
334	206
335	188
336	182
337	184
338	168
339	192
340	198
341	175
342	195
343	206
344	192
345	203
346	176
347	194
348	187
349	191
350	158
351	151
352	185
353	183
354	168
355	155
356	167
357	158
358	159
359	139
360	140
361	154
362	142
363	139
364	128
365	130
366	133
367	126
368	133
369	121
370	145
371	140
372	128
373	146
374	158
375	122
376	135
377	143
378	162
379	164
380	183
381	161
382	149
383	162
384	172
385	194
386	192
387	194
388	189
389	219
390	223
391	226
392	235
393	207
394	197
395	209
396	212
397	228
398	231
399	232
400	244
401	243
402	254
403	263
404	219
405	235
406	245
407	223
408	223
409	249
410	218
411	234
412	210
413	209
414	201
415	217
416	222
417	203
418	188
419	182
420	141
421	171
422	165
423	156
424	158
425	138
426	142
427	142
428	124
429	136
430	122
431	116
432	116
433	123
434	126
435	104
436	114
437	128
438	127
439	108
440	120
441	105
442	89
443	102
444	98
445	104
446	94
447	98
448	96
449	116
450	91
451	97
452	99
453	97
454	115
455	112
456	94
457	91
458	116
459	96
460	101
461	105
462	89
463	99
464	82
465	113
466	102
467	101
468	82
469	78
470	94
471	90
472	74
473	107
474	115
475	101
476	101
477	111
478	90
479	115
480	109
481	89
482	121
483	101
484	100
485	106
486	115
487	84
488	100
489	104
490	101
491	99
492	103
493	105
494	100
495	105
496	112
497	100
498	89
499	96
500	103
501	109
502	109
503	102
504	91
505	99
506	105
507	91
508	85
509	92
510	95
511	106
512	115
513	104
514	109
515	102
516	96
517	94
518	93
519	112
520	98
521	104
522	98
523	104
524	95
525	107
526	92
527	104
528	83
529	92
530	96
531	99
532	102
533	82
534	88
535	103
536	85
537	87
538	79
539	80
540	91
541	87
542	75
543	80
544	82
545	87
546	82
547	94
548	84
549	98
550	76
551	92
552	87
553	85
554	89
555	85
556	98
557	93
558	72
559	89
560	71
561	85
562	89
563	85
564	84
565	87
566	84
567	84
568	86
569	74
570	94
571	95
572	73
573	77
574	94
575	78
576	76
577	93
578	98
579	75
580	65
581	84
582	76
583	85
584	81
585	82
586	88
587	75
588	104
589	93
590	89
591	103
592	88
593	104
594	108
595	90
596	113
597	98
598	91
599	108
600	90
601	110
602	104
603	96
604	114
605	112
606	119
607	119
608	101
609	101
610	119
611	99
612	109
613	113
614	102
615	102
616	100
617	109
618	88
619	77
620	109
621	112
622	108
623	84
624	101
625	99
626	108
627	91
628	107
629	94
630	104
631	99
632	93
633	101
634	98
635	104
636	129
637	115
638	100
639	89
640	87
641	115
642	71
643	95
644	98
645	98
646	116
647	86
648	83
649	97
650	82
651	86
652	91
653	84
654	90
655	96
656	80
657	85
658	74
659	88
660	86
661	84
662	66
663	65
664	84
665	82
666	53
667	73
668	68
669	61
670	69
671	60
672	74
673	81
674	50
675	74
676	45
677	75
678	63
679	50
680	48
681	71
682	73
683	53
684	64
685	55
686	67
687	53
688	64
689	59
690	59
691	63
692	64
693	63
694	47
695	55
696	58
697	59
698	68
699	59
700	46
701	62
702	78
703	64
704	57
705	60
706	72
707	80
708	65
709	66
710	70
711	59
712	50
713	70
714	70
715	66
716	69
717	71
718	57
719	67
720	70
721	65
722	65
723	56
724	48
725	62
726	72
727	63
728	54
729	76
730	73
731	76
732	63
733	87
734	68
735	87
736	72
737	71
738	91
739	75
740	83
741	67
742	79
743	84
744	63
745	79
746	66
747	64
748	67
749	82
750	65
751	69
752	70
753	80
754	73
755	75
756	75
757	57
758	70
759	81
760	69
761	83
762	50
763	64
764	71
765	81
766	61
767	66
768	61
769	74
770	82
771	57
772	71
773	57
774	55
775	68
776	60
777	58
778	50
779	60
780	56
781	56
782	67
783	53
784	61
785	42
786	55
787	67
788	61
789	48
790	63
791	58
792	51
793	66
794	56
795	57
796	39
797	55
798	54
799	65
800	63
801	56
802	51
803	56
804	43
805	45
806	50
807	39
808	46
809	51
810	48
811	57
812	54
813	50
814	48
815	39
816	33
817	51
818	56
819	44
820	63
821	52
822	44
823	41
824	36
825	38
826	37
827	35
828	41
829	37
830	34
831	29
832	31
833	33
834	27
835	39
836	42
837	31
838	46
839	37
840	31
841	40
842	29
843	39
844	44
845	33
846	34
847	40
848	28
849	35
850	27
851	34
852	38
853	32
854	27
855	28
856	28
857	28
858	43
859	31
860	27
861	27
862	35
863	26
864	28
865	28
866	20
867	24
868	29
869	26
870	34
871	27
872	18
873	25
874	29
875	21
876	27
877	20
878	19
879	31
880	35
881	22
882	40
883	30
884	26
885	29
886	24
887	24
888	23
889	23
890	19
891	21
892	26
893	22
894	28
895	27
896	16
897	25
898	28
899	28
900	29
901	22
902	22
903	24
904	28
905	25
906	33
907	35
908	24
909	32
910	30
911	35
912	32
913	38
914	34
915	30
916	33
917	35
918	44
919	47
920	31
921	45
922	47
923	47
924	60
925	47
926	57
927	65
928	62
929	72
930	64
931	65
932	68
933	83
934	67
935	96
936	91
937	99
938	97
939	103
940	111
941	110
942	131
943	144
944	113
945	134
946	150
947	138
948	125
949	142
950	163
951	169
952	140
953	170
954	167
955	176
956	200
957	167
958	182
959	198
960	196
961	181
962	190
963	187
964	188
965	181
966	170
967	181
968	175
969	172
970	179
971	187
972	173
973	167
974	165
975	167
976	149
977	132
978	137
979	134
980	134
981	104
982	118
983	87
984	109
985	104
986	105
987	94
988	98
989	85
990	91
991	88
992	65
993	77
994	57
995	51
996	51
997	41
998	35
999	50
1000	42
1001	33
1002	39
1003	40
1004	35
1005	21
1006	29
1007	26
1008	30
1009	18
1010	30
1011	30
1012	22
1013	18
1014	17
1015	26
1016	15
1017	27
1018	34
1019	22
1020	21
1021	26
1022	18
1023	19
1024	11
1025	10
1026	23
1027	25
1028	21
1029	19
1030	12
1031	16
1032	18
1033	14
1034	20
1035	30
1036	14
1037	25
1038	21
1039	19
1040	12
1041	23
1042	25
1043	20
1044	17
1045	17
1046	15
1047	16
1048	19
1049	23
1050	27
1051	21
1052	18
1053	14
1054	18
1055	17
1056	28
1057	15
1058	20
1059	23
1060	22
1061	12
1062	19
1063	15
1064	21
1065	11
1066	21
1067	19
1068	23
1069	19
1070	20
1071	22
1072	15
1073	19
1074	20
1075	12
1076	10
1077	16
1078	13
1079	20
1080	19
1081	11
1082	21
1083	19
1084	9
1085	21
1086	21
1087	12
1088	11
1089	13
1090	20
1091	11
1092	7
1093	15
1094	13
1095	19
1096	9
1097	17
1098	17
1099	11
1100	16
1101	14
1102	11
1103	9
1104	13
1105	21
1106	9
1107	9
1108	11
1109	12
1110	6
1111	14
1112	22
1113	16
1114	15
1115	11
1116	9
1117	12
1118	10
1119	14
1120	18
1121	15
1122	8
1123	13
1124	19
1125	17
1126	16
1127	11
1128	14
1129	12
1130	14
1131	19
1132	11
1133	17
1134	16
1135	11
1136	19
1137	9
1138	18
1139	13
1140	22
1141	13
1142	13
1143	14
1144	24
1145	14
1146	19
1147	20
1148	20
1149	19
1150	19
1151	20
1152	12
1153	22
1154	16
1155	18
1156	20
1157	19
1158	12
1159	20
1160	19
1161	21
1162	19
1163	30
1164	18
1165	14
1166	14
1167	21
1168	14
1169	21
1170	18
1171	16
1172	20
1173	17
1174	13
1175	13
1176	9
1177	13
1178	15
1179	22
1180	12
1181	17
1182	12
1183	20
1184	13
1185	15
1186	10
1187	13
1188	16
1189	13
1190	15
1191	12
1192	15
1193	19
1194	14
1195	14
1196	9
1197	16
1198	17
1199	10
1200	11
1201	13
1202	11
1203	16
1204	9
1205	11
1206	4
1207	11
1208	14
1209	10
1210	7
1211	17
1212	12
1213	8
1214	9
1215	6
1216	15
1217	8
1218	12
1219	15
1220	11
1221	10
1222	12
1223	10
1224	10
1225	6
1226	11
1227	9
1228	9
1229	12
1230	6
1231	19
1232	5
1233	10
1234	7
1235	5
1236	12
1237	9
1238	9
1239	9
1240	21
1241	11
1242	8
1243	6
1244	4
1245	7
1246	10
1247	14
1248	7
1249	7
1250	10
1251	13
1252	9
1253	11
1254	11
1255	6
1256	4
1257	8
1258	8
1259	8
1260	10
1261	12
1262	14
1263	11
1264	8
1265	14
1266	6
1267	4
1268	11
1269	6
1270	9
1271	6
1272	7
1273	12
1274	8
1275	11
1276	12
1277	8
1278	7
1279	7
1280	6
1281	6
1282	7
1283	11
1284	8
1285	11
1286	10
1287	8
1288	8
1289	3
1290	4
1291	4
1292	6
1293	12
1294	7
1295	9
1296	4
1297	9
1298	9
1299	6
1300	6
1301	7
1302	6
1303	9
1304	6
1305	8
1306	4
1307	11
1308	8
1309	9
1310	7
1311	7
1312	5
1313	2
1314	9
1315	6
1316	6
1317	7
1318	8
1319	11
1320	10
1321	9
1322	11
1323	7
1324	9
1325	9
1326	7
1327	6
1328	6
1329	8
1330	5
1331	12
1332	11
1333	10
1334	8
1335	12
1336	8
1337	8
1338	4
1339	11
1340	11
1341	10
1342	9
1343	7
1344	8
1345	7
1346	11
1347	6
1348	8
1349	11
1350	3
1351	7
1352	4
1353	9
1354	6
1355	11
1356	6
1357	7
1358	6
1359	5
1360	10
1361	15
1362	9
1363	19
1364	8
1365	8
1366	12
1367	8
1368	10
1369	9
1370	10
1371	9
1372	9
1373	7
1374	12
1375	11
1376	11
1377	8
1378	12
1379	14
1380	8
1381	8
1382	5
1383	11
1384	7
1385	11
1386	12
1387	21
1388	9
1389	11
1390	7
1391	12
1392	9
1393	12
1394	12
1395	12
1396	8
1397	11
1398	12
1399	7
1400	13
1401	7
1402	14
1403	8
1404	14
1405	8
1406	8
1407	11
1408	9
1409	8
1410	13
1411	8
1412	9
1413	8
1414	5
1415	6
1416	11
1417	7
1418	8
1419	7
1420	12
1421	10
1422	7
1423	7
1424	7
1425	8
1426	7
1427	6
1428	12
1429	6
1430	14
1431	9
1432	3
1433	8
1434	6
1435	7
1436	7
1437	11
1438	4
1439	5
1440	8
1441	7
1442	9
1443	17
1444	3
1445	16
1446	14
1447	7
1448	7
1449	6
1450	10
1451	5
1452	5
1453	8
1454	9
1455	7
1456	8
1457	4
1458	11
1459	9
1460	7
1461	10
1462	5
1463	3
1464	14
1465	11
1466	7
1467	11
1468	11
1469	5
1470	7
1471	5
1472	6
1473	5
1474	11
1475	10
1476	7
1477	10
1478	11
1479	12
1480	9
1481	4
1482	3
1483	7
1484	2
1485	4
1486	7
1487	2
1488	11
1489	15
1490	4
1491	9
1492	5
1493	4
1494	4
1495	4
1496	8
1497	6
1498	6
1499	4
1500	10
1501	3
1502	5
1503	6
1504	5
1505	7
1506	4
1507	8
1508	6
1509	4
1510	7
1511	3
1512	4
1513	2
1514	5
1515	8
1516	4
1517	6
1518	4
1519	10
1520	4
1521	4
1522	7
1523	9
1524	8
1525	12
1526	8
1527	4
1528	5
1529	3
1530	6
1531	8
1532	6
1533	9
1534	11
1535	9
1536	2
1537	2
1538	6
1539	14
1540	9
1541	6
1542	5
1543	6
1544	7
1545	3
1546	9
1547	7
1548	8
1549	3
1550	5
1551	7
1552	5
1553	4
1554	6
1555	6
1556	4
1557	4
1558	12
1559	8
1560	3
1561	4
1562	8
1563	4
1564	4
1565	3
1566	5
1567	4
1568	7
1569	8
1570	9
1571	8
1572	7
1573	6
1574	10
1575	7
1576	4
1577	5
1578	8
1579	5
1580	4
1581	10
1582	6
1583	4
1584	4
1585	4
1586	7
1587	6
1588	3
1589	5
1590	6
1591	4
1592	2
1593	6
1594	6
1595	4
1596	5
1597	9
1598	6
1599	3
1600	3
1601	4
1602	6
1603	4
1604	3
1605	2
1606	2
1607	3
1608	3
1609	3
1610	5
1611	8
1612	4
1613	1
1614	7
1615	3
1616	1
1617	1
1618	4
1619	5
1620	3
1621	6
1622	4
1623	4
1624	9
1625	5
1626	5
1627	4
1628	7
1629	4
1630	4
1631	2
1632	7
1633	2
1634	3
1635	4
1636	10
1637	4
1638	5
1639	2
1640	2
1641	1
1642	1
1643	9
1644	5
1645	2
1646	3
1647	0
1648	3
1649	5
1650	3
1651	5
1652	7
1653	4
1654	2
1655	6
1656	2
1657	3
1658	1
1659	7
1660	4
1661	4
1662	6
1663	1
1664	4
1665	5
1666	5
1667	8
1668	3
1669	3
1670	5
1671	8
1672	4
1673	5
1674	4
1675	8
1676	9
1677	8
1678	5
1679	4
1680	7
1681	5
1682	8
1683	4
1684	10
1685	6
1686	10
1687	10
1688	8
1689	11
1690	8
1691	12
1692	6
1693	9
1694	7
1695	11
1696	9
1697	8
1698	14
1699	9
1700	7
1701	11
1702	4
1703	9
1704	7
1705	14
1706	11
1707	10
1708	7
1709	14
1710	11
1711	19
1712	11
1713	13
1714	12
1715	13
1716	15
1717	15
1718	16
1719	12
1720	13
1721	16
1722	15
1723	11
1724	14
1725	14
1726	7
1727	12
1728	15
1729	18
1730	15
1731	15
1732	13
1733	19
1734	15
1735	9
1736	9
1737	16
1738	13
1739	14
1740	13
1741	8
1742	12
1743	13
1744	13
1745	10
1746	17
1747	6
1748	7
1749	12
1750	7
1751	13
1752	10
1753	8
1754	3
1755	6
1756	7
1757	14
1758	9
1759	6
1760	7
1761	1
1762	6
1763	8
1764	2
1765	1
1766	9
1767	6
1768	2
1769	3
1770	4
1771	7
1772	6
1773	6
1774	8
1775	2
1776	4
1777	6
1778	3
1779	3
1780	4
1781	4
1782	2
1783	5
1784	5
1785	5
1786	6
1787	1
1788	1
1789	4
1790	6
1791	1
1792	2
1793	6
1794	1
1795	3
1796	3
1797	3
1798	2
1799	5
1800	2
1801	4
1802	3
1803	2
1804	5
1805	2
1806	4
1807	1
1808	6
1809	3
1810	2
1811	5
1812	4
1813	2
1814	3
1815	2
1816	2
1817	1
1818	1
1819	4
1820	3
1821	1
1822	5
1823	2
1824	0
1825	6
1826	1
1827	0
1828	3
1829	1
1830	0
1831	2
1832	5
1833	5
1834	3
1835	3
1836	4
1837	1
1838	3
1839	3
1840	4
1841	4
1842	5
1843	1
1844	5
1845	3
1846	5
1847	7
1848	5
1849	4
1850	4
1851	4
1852	3
1853	2
1854	2
1855	0
1856	2
1857	10
1858	2
1859	4
1860	2
1861	4
1862	2
1863	1
1864	5
1865	1
1866	3
1867	2
1868	2
1869	2
1870	2
1871	2
1872	1
1873	0
1874	3
1875	2
1876	1
1877	3
1878	2
1879	7
1880	1
1881	3
1882	2
1883	2
1884	0
1885	2
1886	1
1887	1
1888	6
1889	9
1890	0
1891	2
1892	2
1893	2
1894	1
1895	4
1896	4
1897	2
1898	3
1899	4
1900	3
1901	4
1902	2
1903	7
1904	2
1905	2
1906	3
1907	2
1908	1
1909	5
1910	1
1911	2
1912	2
1913	3
1914	1
1915	2
1916	4
1917	3
1918	0
1919	3
1920	0
1921	2
1922	2
1923	2
1924	7
1925	1
1926	1
1927	2
1928	3
1929	1
1930	2
1931	5
1932	4
1933	4
1934	0
1935	4
1936	4
1937	1
1938	4
1939	2
1940	3
1941	2
1942	3
1943	2
1944	1
1945	1
1946	2
1947	2
1948	2
1949	0
1950	1
1951	2
1952	1
1953	5
1954	3
1955	4
1956	1
1957	7
1958	3
1959	2
1960	4
1961	3
1962	1
1963	2
1964	0
1965	1
1966	2
1967	1
1968	1
1969	3
1970	4
1971	6
1972	0
1973	5
1974	2
1975	0
1976	1
1977	3
1978	2
1979	3
1980	5
1981	1
1982	3
1983	3
1984	5
1985	2
1986	4
1987	3
1988	4
1989	1
1990	3
1991	3
1992	1
1993	3
1994	1
1995	3
1996	2
1997	4
1998	2
1999	3
2000	2
2001	2
2002	3
2003	4
2004	1
2005	4
2006	3
2007	2
2008	0
2009	1
2010	2
2011	4
2012	4
2013	2
2014	1
2015	3
2016	0
2017	0
2018	0
2019	0
2020	0
2021	0
2022	0
2023	0
2024	0
2025	0
2026	0
2027	0
2028	0
2029	0
2030	0
2031	0
2032	0
2033	0
2034	0
2035	0
2036	0
2037	0
2038	0
2039	0
2040	0
2041	0
2042	0
2043	0
2044	0
2045	0
2046	0
2047	0
