0	0
1	0
2	0
3	0
4	0
5	0
6	0
7	0
8	0
9	0
10	0
11	0
12	0
13	0
14	0
15	0
16	0
17	0
18	0
19	0
20	0
21	0
22	0
23	0
24	0
25	0
26	0
27	0
28	0
29	0
30	0
31	0
32	0
33	0
34	0
35	0
36	0
37	0
38	0
39	0
40	0
41	0
42	75
43	242
44	359
45	319
46	340
47	317
48	320
49	313
50	309
51	342
52	323
53	319
54	325
55	283
56	256
57	269
58	263
59	307
60	263
61	248
62	286
63	264
64	271
65	279
66	272
67	271
68	249
69	255
70	250
71	279
72	270
73	244
74	249
75	233
76	233
77	228
78	258
79	246
80	258
81	228
82	238
83	260
84	226
85	273
86	235
87	249
88	215
89	222
90	224
91	202
92	256
93	224
94	232
95	245
96	244
97	248
98	250
99	234
100	220
101	254
102	233
103	220
104	244
105	224
106	215
107	201
108	228
109	233
110	200
111	214
112	216
113	217
114	200
115	232
116	223
117	231
118	201
119	208
120	196
121	219
122	194
123	231
124	217
125	224
126	219
127	221
128	202
129	182
130	202
131	220
132	207
133	185
134	221
135	226
136	211
137	187
138	229
139	185
140	220
141	209
142	221
143	203
144	223
145	212
146	198
147	227
148	214
149	205
150	202
151	219
152	215
153	207
154	227
155	201
156	201
157	200
158	208
159	215
160	187
161	212
162	204
163	203
164	210
165	176
166	256
167	182
168	194
169	209
170	210
171	216
172	192
173	205
174	209
175	186
176	190
177	205
178	176
179	209
180	200
181	228
182	200
183	181
184	211
185	215
186	207
187	211
188	193
189	204
190	226
191	199
192	229
193	220
194	211
195	230
196	193
197	168
198	201
199	196
200	210
201	196
202	206
203	198
204	203
205	231
206	206
207	198
208	214
209	183
210	199
211	228
212	223
213	201
214	195
215	187
216	193
217	199
218	196
219	236
220	233
221	232
222	213
223	214
224	235
225	212
226	228
227	214
228	208
229	185
230	205
231	199
232	213
233	224
234	204
235	211
236	173
237	226
238	196
239	198
240	201
241	210
242	179
243	225
244	201
245	215
246	196
247	214
248	209
249	202
250	193
251	200
252	200
253	202
254	217
255	207
256	226
257	194
258	228
259	178
260	198
261	203
262	182
263	211
264	210
265	190
266	221
267	219
268	188
269	206
270	212
271	207
272	208
273	189
274	214
275	207
276	199
277	224
278	192
279	200
280	201
281	217
282	181
283	199
284	235
285	198
286	225
287	214
288	202
289	225
290	216
291	206
292	196
293	214
294	202
295	218
296	215
297	231
298	234
299	235
300	228
301	220
302	288
303	374
304	513
305	576
306	422
307	286
308	222
309	207
310	231
311	211
312	201
313	235
314	209
315	196
316	217
317	205
318	237
319	231
320	201
321	216
322	231
323	229
324	227
325	223
326	198
327	199
328	221
329	218
330	219
331	217
332	208
333	225
334	218
335	224
336	226
337	257
338	224
339	255
340	226
341	236
342	185
343	210
344	198
345	195
346	228
347	210
348	221
349	213
350	214
351	198
352	223
353	226
354	206
355	202
356	202
357	225
358	220
359	204
360	193
361	206
362	215
363	218
364	212
365	211
366	208
367	238
368	214
369	215
370	202
371	208
372	202
373	214
374	188
375	238
376	208
377	190
378	240
379	196
380	203
381	219
382	204
383	204
384	218
385	202
386	209
387	211
388	221
389	220
390	210
391	190
392	201
393	217
394	233
395	230
396	214
397	232
398	202
399	226
400	210
401	221
402	227
403	202
404	200
405	217
406	224
407	219
408	237
409	204
410	193
411	236
412	242
413	225
414	208
415	230
416	216
417	206
418	246
419	230
420	234
421	216
422	246
423	220
424	245
425	242
426	220
427	240
428	237
429	236
430	221
431	240
432	217
433	228
434	251
435	273
436	253
437	261
438	232
439	262
440	250
441	258
442	241
443	251
444	249
445	240
446	281
447	261
448	240
449	252
450	249
451	288
452	272
453	304
454	256
455	292
456	283
457	285
458	272
459	300
460	264
461	285
462	285
463	270
464	302
465	273
466	288
467	316
468	275
469	289
470	292
471	282
472	295
473	273
474	277
475	267
476	275
477	272
478	263
479	283
480	274
481	268
482	278
483	293
484	265
485	267
486	250
487	267
488	274
489	287
490	280
491	275
492	242
493	288
494	272
495	281
496	277
497	278
498	264
499	278
500	280
501	252
502	272
503	247
504	240
505	227
506	246
507	277
508	243
509	272
510	265
511	235
512	267
513	242
514	265
515	276
516	247
517	239
518	248
519	249
520	275
521	294
522	254
523	262
524	271
525	281
526	244
527	263
528	264
529	271
530	269
531	244
532	238
533	262
534	260
535	280
536	246
537	250
538	245
539	237
540	242
541	249
542	250
543	259
544	255
545	289
546	240
547	258
548	222
549	251
550	263
551	234
552	251
553	285
554	254
555	267
556	255
557	267
558	273
559	254
560	242
561	245
562	253
563	238
564	236
565	237
566	238
567	227
568	244
569	224
570	262
571	257
572	236
573	255
574	229
575	230
576	227
577	236
578	232
579	220
580	220
581	236
582	247
583	240
584	205
585	241
586	224
587	205
588	237
589	221
590	232
591	206
592	227
593	250
594	248
595	209
596	243
597	229
598	235
599	191
600	240
601	231
602	248
603	223
604	187
605	221
606	223
607	204
608	216
609	236
610	238
611	224
612	228
613	220
614	228
615	209
616	223
617	230
618	225
619	210
620	195
621	231
622	220
623	240
624	205
625	251
626	213
627	208
628	206
629	233
630	233
631	217
632	207
633	236
634	196
635	211
636	208
637	234
638	203
639	224
640	227
641	227
642	198
643	208
644	250
645	232
646	223
647	214
648	216
649	227
650	237
651	195
652	225
653	230
654	222
655	224
656	193
657	220
658	226
659	204
660	189
661	231
662	204
663	222
664	218
665	205
666	212
667	207
668	207
669	195
670	196
671	213
672	213
673	223
674	211
675	183
676	220
677	214
678	235
679	189
680	200
681	224
682	206
683	198
684	203
685	203
686	194
687	221
688	208
689	198
690	202
691	194
692	216
693	216
694	208
695	212
696	192
697	201
698	198
699	193
700	208
701	220
702	188
703	183
704	207
705	222
706	207
707	197
708	197
709	212
710	200
711	191
712	209
713	204
714	218
715	205
716	228
717	216
718	211
719	192
720	199
721	211
722	206
723	200
724	230
725	195
726	184
727	231
728	209
729	206
730	203
731	203
732	213
733	192
734	219
735	202
736	206
737	194
738	212
739	208
740	165
741	216
742	226
743	211
744	206
745	201
746	189
747	240
748	193
749	221
750	223
751	185
752	216
753	192
754	175
755	195
756	205
757	213
758	221
759	204
760	202
761	202
762	199
763	206
764	205
765	219
766	214
767	183
768	211
769	189
770	210
771	222
772	170
773	214
774	200
775	198
776	214
777	186
778	206
779	213
780	196
781	206
782	237
783	212
784	181
785	202
786	219
787	200
788	194
789	182
790	191
791	209
792	204
793	197
794	217
795	200
796	203
797	206
798	177
799	210
800	232
801	200
802	182
803	205
804	206
805	204
806	223
807	215
808	204
809	204
810	211
811	203
812	203
813	191
814	187
815	202
816	195
817	200
818	173
819	157
820	194
821	193
822	185
823	184
824	179
825	187
826	173
827	156
828	194
829	209
830	209
831	184
832	181
833	155
834	195
835	167
836	185
837	189
838	184
839	197
840	185
841	175
842	174
843	202
844	204
845	175
846	168
847	174
848	195
849	164
850	178
851	168
852	186
853	185
854	218
855	191
856	181
857	167
858	202
859	188
860	170
861	173
862	161
863	169
864	183
865	191
866	164
867	173
868	192
869	192
870	169
871	182
872	176
873	191
874	182
875	180
876	176
877	171
878	178
879	168
880	163
881	173
882	185
883	148
884	183
885	171
886	182
887	165
888	171
889	197
890	172
891	179
892	175
893	171
894	196
895	187
896	186
897	189
898	170
899	159
900	159
901	196
902	168
903	184
904	174
905	171
906	187
907	155
908	185
909	166
910	160
911	172
912	150
913	191
914	181
915	181
916	178
917	177
918	150
919	160
920	145
921	179
922	163
923	168
924	166
925	169
926	164
927	160
928	175
929	183
930	161
931	197
932	174
933	157
934	170
935	170
936	180
937	188
938	180
939	199
940	171
941	170
942	153
943	152
944	183
945	161
946	166
947	179
948	190
949	177
950	166
951	189
952	162
953	157
954	182
955	169
956	161
957	194
958	197
959	180
960	176
961	172
962	180
963	166
964	165
965	168
966	172
967	161
968	170
969	160
970	183
971	175
972	204
973	167
974	166
975	174
976	159
977	155
978	181
979	186
980	175
981	170
982	195
983	154
984	183
985	198
986	190
987	165
988	177
989	156
990	176
991	180
992	176
993	199
994	163
995	184
996	168
997	176
998	181
999	190
1000	197
1001	159
1002	164
1003	184
1004	188
1005	204
1006	207
1007	148
1008	173
1009	181
1010	182
1011	170
1012	165
1013	180
1014	192
1015	179
1016	197
1017	212
1018	185
1019	188
1020	190
1021	168
1022	206
1023	173
1024	171
1025	167
1026	185
1027	188
1028	175
1029	201
1030	175
1031	182
1032	190
1033	201
1034	193
1035	199
1036	159
1037	165
1038	199
1039	174
1040	197
1041	205
1042	186
1043	206
1044	193
1045	216
1046	171
1047	188
1048	195
1049	184
1050	188
1051	203
1052	179
1053	208
1054	190
1055	205
1056	196
1057	210
1058	201
1059	185
1060	195
1061	167
1062	201
1063	201
1064	164
1065	170
1066	202
1067	224
1068	209
1069	181
1070	183
1071	199
1072	199
1073	186
1074	220
1075	203
1076	214
1077	199
1078	231
1079	193
1080	212
1081	243
1082	207
1083	212
1084	235
1085	210
1086	203
1087	192
1088	227
1089	216
1090	182
1091	212
1092	204
1093	222
1094	202
1095	212
1096	209
1097	216
1098	207
1099	189
1100	182
1101	215
1102	202
1103	206
1104	213
1105	217
1106	202
1107	234
1108	231
1109	221
1110	200
1111	224
1112	207
1113	239
1114	220
1115	208
1116	221
1117	207
1118	230
1119	220
1120	226
1121	206
1122	252
1123	227
1124	191
1125	202
1126	210
1127	228
1128	217
1129	221
1130	208
1131	213
1132	199
1133	198
1134	208
1135	203
1136	206
1137	227
1138	192
1139	212
1140	204
1141	201
1142	194
1143	179
1144	173
1145	175
1146	171
1147	176
1148	191
1149	169
1150	181
1151	170
1152	136
1153	143
1154	175
1155	169
1156	169
1157	153
1158	149
1159	136
1160	126
1161	113
1162	143
1163	144
1164	143
1165	148
1166	149
1167	121
1168	178
1169	132
1170	132
1171	162
1172	127
1173	134
1174	147
1175	140
1176	118
1177	122
1178	132
1179	146
1180	139
1181	126
1182	123
1183	130
1184	144
1185	131
1186	144
1187	114
1188	140
1189	119
1190	136
1191	126
1192	141
1193	138
1194	131
1195	108
1196	103
1197	133
1198	124
1199	128
1200	133
1201	148
1202	123
1203	128
1204	117
1205	129
1206	125
1207	111
1208	125
1209	122
1210	113
1211	138
1212	128
1213	157
1214	167
1215	199
1216	343
1217	481
1218	752
1219	1104
1220	1450
1221	1766
1222	1853
1223	1881
1224	1473
1225	1177
1226	741
1227	501
1228	318
1229	198
1230	153
1231	151
1232	140
1233	107
1234	105
1235	111
1236	119
1237	102
1238	122
1239	110
1240	119
1241	108
1242	123
1243	93
1244	110
1245	93
1246	93
1247	109
1248	89
1249	106
1250	95
1251	104
1252	108
1253	106
1254	103
1255	101
1256	101
1257	99
1258	107
1259	113
1260	100
1261	107
1262	100
1263	89
1264	88
1265	94
1266	83
1267	101
1268	79
1269	75
1270	90
1271	106
1272	104
1273	85
1274	100
1275	93
1276	89
1277	76
1278	86
1279	84
1280	82
1281	97
1282	92
1283	95
1284	91
1285	102
1286	94
1287	93
1288	85
1289	80
1290	82
1291	111
1292	87
1293	87
1294	102
1295	73
1296	90
1297	94
1298	87
1299	78
1300	82
1301	83
1302	106
1303	88
1304	88
1305	82
1306	88
1307	89
1308	89
1309	78
1310	59
1311	88
1312	79
1313	75
1314	74
1315	78
1316	66
1317	81
1318	83
1319	84
1320	78
1321	76
1322	92
1323	60
1324	83
1325	80
1326	69
1327	72
1328	72
1329	71
1330	84
1331	70
1332	77
1333	81
1334	73
1335	65
1336	75
1337	63
1338	70
1339	74
1340	61
1341	90
1342	70
1343	76
1344	70
1345	62
1346	68
1347	83
1348	71
1349	65
1350	73
1351	84
1352	80
1353	73
1354	93
1355	68
1356	78
1357	70
1358	72
1359	57
1360	53
1361	67
1362	73
1363	80
1364	86
1365	64
1366	75
1367	70
1368	63
1369	75
1370	62
1371	71
1372	62
1373	67
1374	73
1375	75
1376	65
1377	73
1378	78
1379	66
1380	77
1381	73
1382	72
1383	62
1384	78
1385	72
1386	73
1387	63
1388	92
1389	95
1390	77
1391	62
1392	75
1393	65
1394	92
1395	70
1396	67
1397	84
1398	71
1399	66
1400	66
1401	69
1402	68
1403	54
1404	63
1405	73
1406	67
1407	69
1408	57
1409	59
1410	65
1411	58
1412	70
1413	65
1414	63
1415	65
1416	71
1417	74
1418	63
1419	78
1420	68
1421	75
1422	70
1423	70
1424	76
1425	67
1426	56
1427	58
1428	77
1429	52
1430	69
1431	76
1432	68
1433	69
1434	64
1435	59
1436	58
1437	74
1438	64
1439	62
1440	63
1441	78
1442	79
1443	73
1444	53
1445	62
1446	71
1447	60
1448	71
1449	62
1450	77
1451	67
1452	73
1453	62
1454	75
1455	81
1456	63
1457	63
1458	56
1459	72
1460	67
1461	70
1462	72
1463	69
1464	53
1465	60
1466	66
1467	67
1468	57
1469	58
1470	80
1471	64
1472	59
1473	69
1474	71
1475	68
1476	73
1477	58
1478	62
1479	59
1480	57
1481	76
1482	68
1483	58
1484	72
1485	65
1486	63
1487	70
1488	71
1489	74
1490	64
1491	60
1492	69
1493	77
1494	68
1495	64
1496	62
1497	69
1498	63
1499	80
1500	67
1501	59
1502	70
1503	71
1504	71
1505	67
1506	68
1507	67
1508	66
1509	76
1510	67
1511	60
1512	71
1513	65
1514	60
1515	79
1516	71
1517	53
1518	71
1519	53
1520	70
1521	48
1522	58
1523	59
1524	69
1525	76
1526	64
1527	88
1528	57
1529	78
1530	58
1531	63
1532	50
1533	77
1534	58
1535	71
1536	62
1537	61
1538	75
1539	60
1540	55
1541	58
1542	65
1543	74
1544	60
1545	75
1546	59
1547	62
1548	64
1549	55
1550	60
1551	47
1552	65
1553	63
1554	77
1555	81
1556	77
1557	61
1558	82
1559	74
1560	77
1561	63
1562	65
1563	70
1564	69
1565	75
1566	79
1567	72
1568	57
1569	73
1570	81
1571	94
1572	145
1573	338
1574	1139
1575	3146
1576	7092
1577	11306
1578	11897
1579	8550
1580	4109
1581	1380
1582	342
1583	86
1584	55
1585	44
1586	56
1587	48
1588	55
1589	66
1590	49
1591	48
1592	50
1593	50
1594	37
1595	50
1596	53
1597	56
1598	51
1599	55
1600	47
1601	40
1602	40
1603	46
1604	49
1605	43
1606	44
1607	60
1608	57
1609	45
1610	47
1611	53
1612	47
1613	39
1614	49
1615	43
1616	39
1617	59
1618	50
1619	43
1620	47
1621	35
1622	55
1623	47
1624	55
1625	44
1626	41
1627	48
1628	41
1629	56
1630	56
1631	47
1632	55
1633	52
1634	40
1635	59
1636	41
1637	49
1638	46
1639	43
1640	50
1641	52
1642	48
1643	48
1644	46
1645	48
1646	38
1647	48
1648	47
1649	51
1650	43
1651	42
1652	42
1653	42
1654	56
1655	38
1656	51
1657	46
1658	57
1659	32
1660	48
1661	43
1662	46
1663	43
1664	45
1665	43
1666	48
1667	39
1668	51
1669	43
1670	38
1671	50
1672	44
1673	57
1674	53
1675	42
1676	43
1677	46
1678	52
1679	37
1680	42
1681	46
1682	44
1683	40
1684	52
1685	50
1686	45
1687	43
1688	47
1689	39
1690	48
1691	42
1692	59
1693	51
1694	44
1695	48
1696	40
1697	54
1698	47
1699	66
1700	52
1701	62
1702	48
1703	47
1704	55
1705	51
1706	42
1707	45
1708	48
1709	58
1710	42
1711	33
1712	40
1713	39
1714	41
1715	54
1716	47
1717	43
1718	48
1719	44
1720	31
1721	43
1722	50
1723	49
1724	55
1725	60
1726	50
1727	42
1728	47
1729	50
1730	53
1731	49
1732	46
1733	43
1734	50
1735	36
1736	43
1737	51
1738	50
1739	49
1740	49
1741	37
1742	56
1743	49
1744	45
1745	64
1746	44
1747	43
1748	52
1749	51
1750	47
1751	49
1752	45
1753	51
1754	44
1755	50
1756	46
1757	47
1758	59
1759	41
1760	49
1761	56
1762	44
1763	56
1764	49
1765	46
1766	43
1767	48
1768	32
1769	47
1770	47
1771	54
1772	49
1773	49
1774	49
1775	39
1776	43
1777	61
1778	53
1779	47
1780	50
1781	50
1782	45
1783	55
1784	48
1785	41
1786	47
1787	56
1788	54
1789	57
1790	41
1791	49
1792	51
1793	61
1794	46
1795	53
1796	54
1797	60
1798	56
1799	38
1800	47
1801	48
1802	59
1803	43
1804	37
1805	59
1806	55
1807	46
1808	55
1809	60
1810	47
1811	53
1812	40
1813	49
1814	51
1815	43
1816	49
1817	55
1818	47
1819	53
1820	45
1821	55
1822	44
1823	45
1824	46
1825	50
1826	43
1827	46
1828	54
1829	49
1830	51
1831	74
1832	54
1833	50
1834	50
1835	48
1836	51
1837	50
1838	50
1839	53
1840	41
1841	61
1842	56
1843	51
1844	56
1845	50
1846	68
1847	54
1848	49
1849	65
1850	53
1851	64
1852	53
1853	48
1854	52
1855	41
1856	47
1857	49
1858	50
1859	54
1860	53
1861	45
1862	53
1863	48
1864	51
1865	58
1866	47
1867	39
1868	51
1869	52
1870	47
1871	49
1872	61
1873	51
1874	58
1875	52
1876	45
1877	56
1878	63
1879	44
1880	56
1881	55
1882	56
1883	49
1884	50
1885	57
1886	49
1887	66
1888	41
1889	65
1890	56
1891	48
1892	45
1893	53
1894	53
1895	58
1896	51
1897	54
1898	41
1899	43
1900	54
1901	64
1902	55
1903	41
1904	59
1905	54
1906	45
1907	42
1908	58
1909	49
1910	43
1911	41
1912	51
1913	52
1914	49
1915	50
1916	46
1917	63
1918	56
1919	58
1920	51
1921	59
1922	68
1923	59
1924	40
1925	59
1926	56
1927	39
1928	51
1929	65
1930	51
1931	52
1932	47
1933	48
1934	47
1935	59
1936	41
1937	54
1938	58
1939	67
1940	48
1941	65
1942	54
1943	51
1944	59
1945	74
1946	52
1947	52
1948	58
1949	70
1950	67
1951	40
1952	59
1953	61
1954	57
1955	70
1956	62
1957	64
1958	47
1959	61
1960	47
1961	52
1962	61
1963	55
1964	44
1965	56
1966	50
1967	48
1968	58
1969	53
1970	46
1971	61
1972	56
1973	56
1974	59
1975	55
1976	55
1977	51
1978	59
1979	64
1980	61
1981	55
1982	41
1983	54
1984	48
1985	46
1986	56
1987	50
1988	52
1989	70
1990	53
1991	56
1992	53
1993	73
1994	41
1995	49
1996	56
1997	51
1998	33
1999	59
2000	59
2001	71
2002	46
2003	57
2004	57
2005	54
2006	58
2007	77
2008	50
2009	62
2010	43
2011	51
2012	40
2013	60
2014	56
2015	65
2016	70
2017	51
2018	60
2019	58
2020	47
2021	64
2022	59
2023	56
2024	57
2025	58
2026	52
2027	54
2028	50
2029	62
2030	76
2031	61
2032	57
2033	51
2034	48
2035	56
2036	49
2037	52
2038	75
2039	53
2040	65
2041	69
2042	59
2043	45
2044	65
2045	51
2046	46
2047	65
2048	47
2049	48
2050	52
2051	58
2052	87
2053	60
2054	54
2055	59
2056	65
2057	69
2058	66
2059	56
2060	63
2061	59
2062	54
2063	65
2064	49
2065	65
2066	60
2067	49
2068	63
2069	61
2070	61
2071	54
2072	65
2073	49
2074	72
2075	51
2076	65
2077	64
2078	64
2079	58
2080	66
2081	60
2082	64
2083	62
2084	66
2085	62
2086	69
2087	74
2088	60
2089	54
2090	48
2091	59
2092	56
2093	74
2094	58
2095	59
2096	60
2097	63
2098	50
2099	66
2100	64
2101	68
2102	67
2103	58
2104	38
2105	60
2106	50
2107	60
2108	68
2109	64
2110	72
2111	73
2112	47
2113	52
2114	60
2115	61
2116	52
2117	79
2118	72
2119	61
2120	58
2121	66
2122	64
2123	68
2124	69
2125	54
2126	56
2127	65
2128	72
2129	76
2130	63
2131	79
2132	63
2133	65
2134	81
2135	63
2136	60
2137	60
2138	68
2139	66
2140	73
2141	50
2142	70
2143	68
2144	56
2145	71
2146	72
2147	72
2148	75
2149	52
2150	62
2151	58
2152	59
2153	66
2154	54
2155	67
2156	78
2157	71
2158	77
2159	85
2160	77
2161	85
2162	55
2163	77
2164	69
2165	66
2166	79
2167	67
2168	84
2169	66
2170	74
2171	71
2172	78
2173	69
2174	54
2175	94
2176	61
2177	73
2178	73
2179	77
2180	64
2181	61
2182	50
2183	63
2184	58
2185	60
2186	63
2187	61
2188	76
2189	87
2190	76
2191	58
2192	90
2193	88
2194	72
2195	76
2196	75
2197	79
2198	64
2199	69
2200	82
2201	70
2202	84
2203	75
2204	72
2205	84
2206	62
2207	68
2208	86
2209	72
2210	81
2211	76
2212	80
2213	70
2214	57
2215	70
2216	62
2217	92
2218	72
2219	62
2220	102
2221	82
2222	67
2223	81
2224	59
2225	79
2226	75
2227	80
2228	86
2229	85
2230	91
2231	88
2232	70
2233	79
2234	75
2235	81
2236	62
2237	70
2238	85
2239	91
2240	84
2241	86
2242	72
2243	79
2244	77
2245	65
2246	67
2247	97
2248	89
2249	75
2250	79
2251	100
2252	95
2253	85
2254	72
2255	80
2256	86
2257	108
2258	66
2259	85
2260	81
2261	88
2262	81
2263	62
2264	78
2265	107
2266	82
2267	86
2268	87
2269	82
2270	103
2271	66
2272	69
2273	81
2274	90
2275	78
2276	87
2277	82
2278	75
2279	75
2280	77
2281	67
2282	71
2283	83
2284	76
2285	78
2286	88
2287	91
2288	81
2289	75
2290	99
2291	72
2292	68
2293	62
2294	74
2295	57
2296	88
2297	69
2298	67
2299	62
2300	59
2301	67
2302	62
2303	73
2304	55
2305	56
2306	50
2307	69
2308	71
2309	88
2310	58
2311	58
2312	53
2313	60
2314	63
2315	71
2316	77
2317	59
2318	66
2319	65
2320	39
2321	76
2322	51
2323	64
2324	62
2325	62
2326	57
2327	74
2328	58
2329	76
2330	73
2331	46
2332	60
2333	71
2334	66
2335	64
2336	55
2337	46
2338	54
2339	64
2340	72
2341	73
2342	66
2343	64
2344	74
2345	67
2346	70
2347	59
2348	60
2349	63
2350	62
2351	78
2352	54
2353	59
2354	67
2355	61
2356	57
2357	67
2358	62
2359	55
2360	69
2361	47
2362	52
2363	60
2364	73
2365	52
2366	59
2367	69
2368	52
2369	52
2370	67
2371	61
2372	54
2373	55
2374	71
2375	51
2376	72
2377	57
2378	67
2379	61
2380	59
2381	61
2382	58
2383	61
2384	68
2385	57
2386	63
2387	57
2388	58
2389	76
2390	61
2391	50
2392	65
2393	77
2394	58
2395	59
2396	42
2397	53
2398	47
2399	61
2400	57
2401	60
2402	69
2403	49
2404	61
2405	64
2406	58
2407	73
2408	50
2409	81
2410	73
2411	62
2412	57
2413	57
2414	65
2415	64
2416	41
2417	51
2418	64
2419	85
2420	65
2421	55
2422	42
2423	60
2424	56
2425	66
2426	77
2427	74
2428	50
2429	69
2430	69
2431	50
2432	46
2433	53
2434	56
2435	62
2436	74
2437	68
2438	62
2439	70
2440	58
2441	54
2442	59
2443	59
2444	60
2445	50
2446	66
2447	61
2448	70
2449	57
2450	61
2451	58
2452	51
2453	51
2454	59
2455	47
2456	72
2457	56
2458	61
2459	63
2460	45
2461	62
2462	54
2463	59
2464	58
2465	61
2466	49
2467	60
2468	65
2469	60
2470	58
2471	56
2472	53
2473	69
2474	49
2475	74
2476	48
2477	61
2478	43
2479	41
2480	59
2481	51
2482	53
2483	51
2484	48
2485	57
2486	60
2487	40
2488	53
2489	54
2490	52
2491	45
2492	53
2493	46
2494	56
2495	52
2496	51
2497	56
2498	58
2499	64
2500	53
2501	60
2502	51
2503	57
2504	49
2505	43
2506	52
2507	66
2508	63
2509	58
2510	61
2511	60
2512	58
2513	59
2514	58
2515	59
2516	45
2517	54
2518	48
2519	66
2520	66
2521	55
2522	52
2523	69
2524	62
2525	47
2526	51
2527	58
2528	56
2529	52
2530	51
2531	56
2532	49
2533	48
2534	52
2535	58
2536	63
2537	50
2538	56
2539	37
2540	51
2541	46
2542	53
2543	43
2544	50
2545	59
2546	43
2547	57
2548	58
2549	59
2550	52
2551	53
2552	53
2553	56
2554	50
2555	51
2556	60
2557	62
2558	48
2559	45
2560	45
2561	62
2562	41
2563	49
2564	56
2565	74
2566	63
2567	60
2568	56
2569	49
2570	59
2571	61
2572	49
2573	70
2574	57
2575	59
2576	65
2577	42
2578	71
2579	38
2580	51
2581	65
2582	48
2583	60
2584	54
2585	47
2586	46
2587	64
2588	39
2589	54
2590	63
2591	52
2592	59
2593	63
2594	48
2595	52
2596	63
2597	57
2598	66
2599	53
2600	52
2601	62
2602	63
2603	69
2604	54
2605	63
2606	38
2607	49
2608	54
2609	52
2610	60
2611	48
2612	64
2613	51
2614	62
2615	59
2616	60
2617	65
2618	53
2619	54
2620	50
2621	57
2622	60
2623	57
2624	44
2625	60
2626	69
2627	51
2628	60
2629	54
2630	55
2631	51
2632	54
2633	58
2634	39
2635	60
2636	58
2637	47
2638	57
2639	45
2640	49
2641	59
2642	49
2643	36
2644	61
2645	46
2646	55
2647	57
2648	45
2649	52
2650	45
2651	48
2652	48
2653	37
2654	47
2655	55
2656	43
2657	52
2658	47
2659	47
2660	46
2661	48
2662	50
2663	40
2664	37
2665	42
2666	34
2667	40
2668	37
2669	35
2670	39
2671	31
2672	33
2673	32
2674	38
2675	25
2676	48
2677	43
2678	29
2679	38
2680	32
2681	31
2682	32
2683	33
2684	32
2685	32
2686	32
2687	36
2688	36
2689	27
2690	34
2691	46
2692	34
2693	37
2694	45
2695	34
2696	28
2697	38
2698	27
2699	34
2700	31
2701	36
2702	32
2703	23
2704	37
2705	38
2706	27
2707	22
2708	27
2709	31
2710	43
2711	37
2712	26
2713	30
2714	35
2715	22
2716	33
2717	35
2718	25
2719	28
2720	26
2721	32
2722	25
2723	22
2724	44
2725	34
2726	26
2727	27
2728	39
2729	23
2730	32
2731	31
2732	38
2733	28
2734	18
2735	37
2736	20
2737	26
2738	31
2739	31
2740	29
2741	34
2742	28
2743	26
2744	27
2745	29
2746	21
2747	24
2748	35
2749	25
2750	31
2751	21
2752	32
2753	29
2754	25
2755	22
2756	19
2757	23
2758	25
2759	29
2760	27
2761	35
2762	22
2763	23
2764	31
2765	22
2766	16
2767	21
2768	31
2769	23
2770	16
2771	24
2772	28
2773	25
2774	27
2775	24
2776	18
2777	35
2778	34
2779	57
2780	120
2781	338
2782	882
2783	1752
2784	2799
2785	3491
2786	3180
2787	2283
2788	1176
2789	438
2790	151
2791	50
2792	30
2793	18
2794	18
2795	19
2796	17
2797	28
2798	15
2799	22
2800	14
2801	23
2802	21
2803	20
2804	22
2805	22
2806	19
2807	16
2808	16
2809	25
2810	12
2811	22
2812	13
2813	22
2814	23
2815	27
2816	15
2817	24
2818	23
2819	23
2820	16
2821	17
2822	25
2823	14
2824	18
2825	22
2826	15
2827	22
2828	19
2829	12
2830	18
2831	17
2832	24
2833	16
2834	25
2835	14
2836	12
2837	20
2838	15
2839	14
2840	11
2841	13
2842	17
2843	17
2844	8
2845	12
2846	15
2847	14
2848	21
2849	14
2850	13
2851	19
2852	12
2853	11
2854	14
2855	20
2856	11
2857	12
2858	9
2859	18
2860	11
2861	8
2862	14
2863	9
2864	13
2865	15
2866	10
2867	17
2868	17
2869	8
2870	16
2871	6
2872	11
2873	14
2874	10
2875	14
2876	14
2877	10
2878	12
2879	19
2880	11
2881	10
2882	20
2883	8
2884	7
2885	7
2886	14
2887	11
2888	9
2889	7
2890	8
2891	10
2892	7
2893	13
2894	10
2895	13
2896	9
2897	10
2898	11
2899	11
2900	5
2901	17
2902	9
2903	11
2904	10
2905	9
2906	8
2907	9
2908	11
2909	10
2910	4
2911	10
2912	10
2913	11
2914	10
2915	6
2916	13
2917	4
2918	8
2919	11
2920	14
2921	11
2922	6
2923	5
2924	13
2925	12
2926	11
2927	7
2928	10
2929	11
2930	5
2931	7
2932	6
2933	10
2934	7
2935	9
2936	8
2937	8
2938	10
2939	5
2940	10
2941	11
2942	3
2943	5
2944	7
2945	7
2946	7
2947	7
2948	5
2949	5
2950	6
2951	8
2952	10
2953	4
2954	6
2955	10
2956	7
2957	4
2958	4
2959	9
2960	8
2961	6
2962	7
2963	8
2964	6
2965	6
2966	9
2967	7
2968	8
2969	9
2970	10
2971	5
2972	6
2973	5
2974	6
2975	5
2976	13
2977	2
2978	5
2979	4
2980	6
2981	6
2982	6
2983	5
2984	9
2985	4
2986	7
2987	5
2988	5
2989	7
2990	8
2991	3
2992	8
2993	6
2994	3
2995	4
2996	2
2997	3
2998	6
2999	2
3000	5
3001	6
3002	10
3003	6
3004	10
3005	4
3006	6
3007	5
3008	6
3009	5
3010	1
3011	4
3012	2
3013	4
3014	3
3015	7
3016	2
3017	12
3018	10
3019	28
3020	53
3021	182
3022	316
3023	550
3024	718
3025	687
3026	527
3027	290
3028	151
3029	50
3030	13
3031	4
3032	6
3033	4
3034	6
3035	2
3036	10
3037	6
3038	4
3039	4
3040	6
3041	4
3042	4
3043	15
3044	4
3045	7
3046	3
3047	2
3048	3
3049	3
3050	3
3051	7
3052	1
3053	5
3054	4
3055	3
3056	5
3057	3
3058	6
3059	7
3060	3
3061	8
3062	6
3063	4
3064	4
3065	6
3066	5
3067	4
3068	6
3069	4
3070	9
3071	5
3072	6
3073	4
3074	5
3075	6
3076	5
3077	6
3078	4
3079	6
3080	1
3081	5
3082	5
3083	6
3084	2
3085	2
3086	9
3087	3
3088	8
3089	5
3090	4
3091	2
3092	5
3093	9
3094	9
3095	4
3096	8
3097	5
3098	8
3099	8
3100	7
3101	6
3102	8
3103	2
3104	3
3105	8
3106	5
3107	5
3108	7
3109	11
3110	6
3111	2
3112	8
3113	6
3114	3
3115	5
3116	2
3117	4
3118	5
3119	6
3120	6
3121	7
3122	4
3123	2
3124	11
3125	10
3126	5
3127	3
3128	2
3129	2
3130	7
3131	6
3132	4
3133	6
3134	2
3135	4
3136	8
3137	4
3138	10
3139	2
3140	2
3141	3
3142	4
3143	7
3144	1
3145	6
3146	8
3147	11
3148	3
3149	8
3150	7
3151	12
3152	6
3153	8
3154	15
3155	42
3156	116
3157	302
3158	773
3159	1524
3160	2455
3161	2981
3162	2746
3163	1949
3164	1028
3165	452
3166	155
3167	41
3168	15
3169	7
3170	3
3171	3
3172	4
3173	2
3174	6
3175	3
3176	5
3177	4
3178	3
3179	3
3180	5
3181	3
3182	3
3183	3
3184	3
3185	4
3186	2
3187	2
3188	4
3189	1
3190	2
3191	3
3192	1
3193	1
3194	1
3195	2
3196	1
3197	2
3198	2
3199	0
3200	4
3201	2
3202	2
3203	3
3204	1
3205	2
3206	2
3207	3
3208	0
3209	3
3210	4
3211	1
3212	1
3213	6
3214	3
3215	2
3216	1
3217	3
3218	3
3219	3
3220	1
3221	3
3222	5
3223	4
3224	5
3225	1
3226	2
3227	1
3228	2
3229	0
3230	2
3231	3
3232	0
3233	2
3234	0
3235	1
3236	1
3237	1
3238	2
3239	5
3240	2
3241	5
3242	1
3243	4
3244	2
3245	2
3246	2
3247	1
3248	2
3249	2
3250	1
3251	1
3252	1
3253	0
3254	0
3255	2
3256	2
3257	3
3258	1
3259	2
3260	0
3261	1
3262	3
3263	3
3264	0
3265	1
3266	1
3267	1
3268	2
3269	2
3270	1
3271	1
3272	3
3273	1
3274	1
3275	2
3276	3
3277	1
3278	1
3279	1
3280	1
3281	0
3282	1
3283	0
3284	1
3285	2
3286	2
3287	1
3288	1
3289	1
3290	1
3291	0
3292	2
3293	1
3294	0
3295	5
3296	1
3297	0
3298	1
3299	2
3300	2
3301	2
3302	3
3303	0
3304	0
3305	2
3306	3
3307	1
3308	2
3309	1
3310	1
3311	5
3312	3
3313	0
3314	1
3315	1
3316	5
3317	0
3318	2
3319	1
3320	1
3321	2
3322	4
3323	0
3324	1
3325	2
3326	2
3327	2
3328	2
3329	0
3330	2
3331	3
3332	4
3333	0
3334	2
3335	1
3336	0
3337	1
3338	2
3339	1
3340	1
3341	0
3342	1
3343	1
3344	1
3345	1
3346	1
3347	1
3348	4
3349	3
3350	0
3351	1
3352	1
3353	2
3354	0
3355	3
3356	1
3357	0
3358	1
3359	2
3360	1
3361	5
3362	2
3363	2
3364	0
3365	3
3366	0
3367	4
3368	3
3369	3
3370	0
3371	2
3372	0
3373	2
3374	1
3375	0
3376	2
3377	4
3378	1
3379	4
3380	2
3381	1
3382	0
3383	1
3384	2
3385	3
3386	1
3387	2
3388	3
3389	4
3390	0
3391	0
3392	3
3393	0
3394	2
3395	2
3396	3
3397	0
3398	0
3399	1
3400	1
3401	1
3402	3
3403	3
3404	0
3405	2
3406	1
3407	5
3408	2
3409	2
3410	0
3411	3
3412	0
3413	0
3414	3
3415	2
3416	3
3417	3
3418	1
3419	0
3420	3
3421	2
3422	0
3423	2
3424	0
3425	2
3426	2
3427	0
3428	3
3429	0
3430	0
3431	0
3432	1
3433	2
3434	2
3435	2
3436	0
3437	2
3438	2
3439	0
3440	2
3441	2
3442	1
3443	5
3444	0
3445	1
3446	1
3447	0
3448	2
3449	1
3450	0
3451	4
3452	3
3453	2
3454	0
3455	1
3456	0
3457	2
3458	0
3459	1
3460	2
3461	2
3462	1
3463	1
3464	3
3465	2
3466	1
3467	1
3468	2
3469	2
3470	0
3471	3
3472	1
3473	2
3474	1
3475	1
3476	0
3477	2
3478	2
3479	2
3480	2
3481	2
3482	3
3483	1
3484	2
3485	0
3486	4
3487	0
3488	0
3489	0
3490	1
3491	0
3492	2
3493	4
3494	2
3495	1
3496	1
3497	1
3498	2
3499	1
3500	0
3501	1
3502	2
3503	1
3504	2
3505	0
3506	1
3507	1
3508	0
3509	1
3510	2
3511	2
3512	2
3513	0
3514	1
3515	2
3516	2
3517	2
3518	1
3519	1
3520	3
3521	0
3522	0
3523	1
3524	0
3525	1
3526	0
3527	2
3528	0
3529	1
3530	0
3531	0
3532	1
3533	1
3534	2
3535	3
3536	2
3537	2
3538	0
3539	2
3540	1
3541	3
3542	1
3543	2
3544	1
3545	0
3546	3
3547	0
3548	1
3549	3
3550	2
3551	2
3552	0
3553	4
3554	0
3555	1
3556	2
3557	2
3558	0
3559	1
3560	0
3561	0
3562	0
3563	1
3564	1
3565	3
3566	0
3567	2
3568	0
3569	1
3570	1
3571	0
3572	2
3573	0
3574	2
3575	0
3576	1
3577	0
3578	4
3579	4
3580	3
3581	3
3582	4
3583	1
3584	1
3585	1
3586	0
3587	3
3588	3
3589	1
3590	0
3591	1
3592	2
3593	0
3594	1
3595	2
3596	0
3597	2
3598	0
3599	1
3600	4
3601	0
3602	2
3603	0
3604	2
3605	1
3606	0
3607	2
3608	1
3609	1
3610	3
3611	4
3612	0
3613	2
3614	1
3615	2
3616	2
3617	0
3618	1
3619	2
3620	0
3621	1
3622	0
3623	1
3624	1
3625	0
3626	2
3627	2
3628	4
3629	1
3630	0
3631	0
3632	0
3633	1
3634	1
3635	1
3636	2
3637	0
3638	1
3639	3
3640	1
3641	3
3642	2
3643	0
3644	1
3645	1
3646	1
3647	1
3648	2
3649	1
3650	1
3651	2
3652	2
3653	2
3654	0
3655	2
3656	0
3657	1
3658	1
3659	3
3660	0
3661	0
3662	4
3663	1
3664	2
3665	1
3666	0
3667	1
3668	3
3669	1
3670	2
3671	2
3672	0
3673	1
3674	2
3675	1
3676	3
3677	0
3678	1
3679	1
3680	0
3681	3
3682	1
3683	1
3684	0
3685	0
3686	1
3687	1
3688	2
3689	0
3690	0
3691	2
3692	0
3693	3
3694	3
3695	0
3696	1
3697	2
3698	2
3699	1
3700	2
3701	1
3702	1
3703	2
3704	1
3705	0
3706	2
3707	1
3708	1
3709	2
3710	2
3711	1
3712	2
3713	0
3714	0
3715	3
3716	0
3717	1
3718	1
3719	1
3720	1
3721	1
3722	4
3723	1
3724	2
3725	2
3726	1
3727	2
3728	0
3729	2
3730	1
3731	0
3732	2
3733	2
3734	1
3735	0
3736	0
3737	0
3738	0
3739	3
3740	0
3741	2
3742	1
3743	3
3744	2
3745	0
3746	0
3747	1
3748	0
3749	1
3750	0
3751	2
3752	3
3753	0
3754	1
3755	1
3756	2
3757	0
3758	1
3759	0
3760	4
3761	0
3762	1
3763	2
3764	1
3765	1
3766	0
3767	1
3768	0
3769	2
3770	2
3771	2
3772	1
3773	1
3774	1
3775	0
3776	0
3777	3
3778	1
3779	1
3780	0
3781	1
3782	1
3783	1
3784	0
3785	1
3786	0
3787	1
3788	0
3789	0
3790	0
3791	1
3792	0
3793	3
3794	2
3795	1
3796	1
3797	2
3798	2
3799	1
3800	1
3801	0
3802	0
3803	0
3804	1
3805	1
3806	2
3807	2
3808	0
3809	1
3810	3
3811	0
3812	4
3813	1
3814	2
3815	2
3816	1
3817	0
3818	2
3819	2
3820	1
3821	1
3822	1
3823	1
3824	2
3825	1
3826	0
3827	0
3828	3
3829	1
3830	0
3831	0
3832	0
3833	2
3834	0
3835	1
3836	1
3837	2
3838	0
3839	1
3840	1
3841	1
3842	2
3843	1
3844	1
3845	1
3846	0
3847	1
3848	3
3849	0
3850	0
3851	1
3852	1
3853	0
3854	0
3855	2
3856	1
3857	2
3858	1
3859	0
3860	1
3861	0
3862	1
3863	0
3864	0
3865	2
3866	1
3867	0
3868	1
3869	1
3870	1
3871	0
3872	1
3873	1
3874	0
3875	0
3876	2
3877	0
3878	1
3879	0
3880	0
3881	0
3882	1
3883	1
3884	0
3885	2
3886	2
3887	0
3888	0
3889	2
3890	0
3891	0
3892	1
3893	1
3894	0
3895	1
3896	0
3897	2
3898	3
3899	1
3900	1
3901	0
3902	0
3903	0
3904	2
3905	1
3906	0
3907	0
3908	1
3909	1
3910	1
3911	0
3912	0
3913	0
3914	0
3915	0
3916	0
3917	0
3918	1
3919	1
3920	2
3921	1
3922	0
3923	1
3924	1
3925	2
3926	0
3927	0
3928	1
3929	0
3930	0
3931	2
3932	1
3933	1
3934	0
3935	1
3936	0
3937	0
3938	0
3939	0
3940	0
3941	0
3942	0
3943	1
3944	2
3945	1
3946	2
3947	0
3948	0
3949	2
3950	0
3951	1
3952	1
3953	0
3954	0
3955	1
3956	3
3957	1
3958	0
3959	2
3960	1
3961	0
3962	0
3963	1
3964	0
3965	0
3966	0
3967	0
3968	0
3969	0
3970	0
3971	2
3972	0
3973	2
3974	1
3975	0
3976	1
3977	1
3978	1
3979	0
3980	1
3981	0
3982	1
3983	0
3984	0
3985	1
3986	1
3987	2
3988	1
3989	2
3990	1
3991	0
3992	0
3993	2
3994	0
3995	1
3996	1
3997	2
3998	0
3999	1
4000	0
4001	0
4002	2
4003	0
4004	1
4005	0
4006	1
4007	1
4008	1
4009	0
4010	2
4011	1
4012	0
4013	0
4014	1
4015	1
4016	1
4017	1
4018	1
4019	0
4020	0
4021	1
4022	1
4023	1
4024	1
4025	2
4026	0
4027	0
4028	0
4029	3
4030	2
4031	3
4032	0
4033	0
4034	0
4035	0
4036	0
4037	0
4038	0
4039	0
4040	0
4041	0
4042	0
4043	0
4044	0
4045	0
4046	0
4047	0
4048	0
4049	0
4050	0
4051	0
4052	0
4053	0
4054	0
4055	0
4056	0
4057	0
4058	0
4059	0
4060	0
4061	0
4062	0
4063	0
4064	0
4065	0
4066	0
4067	0
4068	0
4069	0
4070	0
4071	0
4072	0
4073	0
4074	0
4075	0
4076	0
4077	0
4078	0
4079	0
4080	0
4081	0
4082	0
4083	0
4084	0
4085	0
4086	0
4087	0
4088	0
4089	0
4090	0
4091	0
4092	0
4093	0
4094	0
4095	0
