0	0
1	0
2	0
3	0
4	0
5	0
6	0
7	0
8	0
9	0
10	0
11	0
12	0
13	0
14	0
15	0
16	0
17	0
18	0
19	0
20	0
21	0
22	0
23	0
24	0
25	0
26	0
27	0
28	0
29	0
30	0
31	0
32	0
33	0
34	0
35	0
36	0
37	0
38	0
39	0
40	0
41	0
42	0
43	0
44	0
45	0
46	0
47	0
48	0
49	0
50	0
51	0
52	0
53	0
54	0
55	0
56	0
57	0
58	0
59	0
60	0
61	0
62	0
63	0
64	0
65	0
66	0
67	0
68	0
69	0
70	0
71	0
72	0
73	0
74	0
75	0
76	0
77	0
78	0
79	0
80	0
81	0
82	0
83	0
84	0
85	0
86	0
87	0
88	0
89	0
90	0
91	0
92	0
93	0
94	0
95	0
96	0
97	0
98	0
99	0
100	0
101	0
102	0
103	0
104	0
105	0
106	0
107	0
108	0
109	0
110	0
111	0
112	0
113	0
114	0
115	0
116	0
117	1
118	31
119	142
120	264
121	368
122	375
123	392
124	358
125	336
126	340
127	338
128	391
129	362
130	345
131	341
132	312
133	361
134	335
135	359
136	325
137	338
138	298
139	329
140	368
141	346
142	336
143	368
144	316
145	359
146	368
147	317
148	315
149	366
150	337
151	305
152	315
153	355
154	328
155	296
156	301
157	283
158	375
159	289
160	316
161	306
162	257
163	323
164	294
165	305
166	289
167	304
168	316
169	307
170	278
171	309
172	323
173	317
174	298
175	284
176	295
177	309
178	321
179	327
180	311
181	300
182	285
183	270
184	283
185	283
186	283
187	265
188	272
189	316
190	272
191	293
192	277
193	277
194	307
195	307
196	310
197	272
198	291
199	298
200	271
201	293
202	285
203	275
204	296
205	255
206	288
207	257
208	255
209	306
210	261
211	250
212	270
213	273
214	287
215	298
216	276
217	277
218	310
219	250
220	270
221	304
222	292
223	249
224	251
225	301
226	262
227	272
228	244
229	279
230	275
231	264
232	266
233	304
234	294
235	248
236	263
237	244
238	286
239	292
240	279
241	284
242	296
243	272
244	271
245	252
246	252
247	279
248	286
249	304
250	268
251	298
252	289
253	259
254	269
255	275
256	273
257	288
258	258
259	262
260	296
261	274
262	268
263	268
264	269
265	265
266	278
267	292
268	276
269	263
270	254
271	279
272	253
273	272
274	274
275	256
276	252
277	279
278	253
279	275
280	258
281	275
282	265
283	288
284	252
285	290
286	269
287	294
288	314
289	326
290	276
291	253
292	302
293	280
294	279
295	252
296	253
297	269
298	236
299	249
300	307
301	275
302	269
303	267
304	287
305	302
306	271
307	240
308	267
309	261
310	283
311	278
312	241
313	273
314	271
315	272
316	258
317	246
318	278
319	264
320	257
321	235
322	277
323	247
324	242
325	250
326	268
327	238
328	264
329	271
330	265
331	256
332	284
333	270
334	263
335	267
336	307
337	260
338	282
339	252
340	276
341	271
342	267
343	288
344	272
345	272
346	284
347	248
348	266
349	262
350	236
351	282
352	276
353	247
354	288
355	273
356	258
357	250
358	279
359	255
360	258
361	296
362	268
363	271
364	270
365	290
366	274
367	268
368	254
369	274
370	264
371	245
372	276
373	285
374	253
375	286
376	277
377	313
378	266
379	291
380	318
381	305
382	316
383	352
384	418
385	396
386	364
387	312
388	286
389	272
390	271
391	283
392	260
393	252
394	262
395	256
396	276
397	248
398	250
399	275
400	291
401	302
402	255
403	308
404	293
405	293
406	258
407	263
408	266
409	275
410	272
411	269
412	275
413	257
414	270
415	285
416	277
417	263
418	260
419	249
420	288
421	289
422	275
423	240
424	306
425	292
426	246
427	256
428	273
429	254
430	226
431	250
432	254
433	263
434	264
435	265
436	287
437	260
438	277
439	252
440	299
441	277
442	247
443	258
444	302
445	279
446	279
447	244
448	290
449	276
450	273
451	270
452	278
453	258
454	286
455	278
456	277
457	281
458	266
459	259
460	281
461	266
462	269
463	260
464	289
465	272
466	251
467	266
468	242
469	273
470	267
471	293
472	262
473	266
474	254
475	249
476	291
477	284
478	276
479	270
480	259
481	258
482	242
483	239
484	286
485	278
486	257
487	245
488	271
489	262
490	276
491	264
492	284
493	281
494	269
495	253
496	300
497	270
498	267
499	261
500	251
501	258
502	275
503	241
504	278
505	290
506	259
507	273
508	283
509	278
510	268
511	248
512	269
513	285
514	263
515	275
516	259
517	264
518	290
519	337
520	258
521	278
522	257
523	277
524	277
525	280
526	260
527	249
528	329
529	281
530	280
531	271
532	307
533	292
534	283
535	272
536	279
537	287
538	287
539	287
540	271
541	284
542	315
543	295
544	302
545	267
546	303
547	281
548	306
549	324
550	299
551	308
552	286
553	287
554	277
555	283
556	315
557	298
558	290
559	307
560	278
561	267
562	316
563	284
564	297
565	299
566	279
567	286
568	312
569	321
570	272
571	302
572	278
573	291
574	310
575	304
576	324
577	300
578	286
579	307
580	270
581	283
582	292
583	284
584	293
585	281
586	294
587	282
588	282
589	309
590	295
591	278
592	301
593	273
594	276
595	272
596	284
597	296
598	281
599	275
600	294
601	285
602	258
603	286
604	326
605	273
606	293
607	299
608	297
609	280
610	288
611	302
612	269
613	323
614	296
615	310
616	284
617	317
618	302
619	284
620	309
621	319
622	299
623	284
624	341
625	336
626	301
627	329
628	320
629	287
630	326
631	314
632	303
633	358
634	350
635	316
636	289
637	300
638	300
639	292
640	288
641	324
642	309
643	277
644	305
645	297
646	302
647	280
648	309
649	330
650	283
651	309
652	311
653	288
654	296
655	287
656	313
657	286
658	320
659	305
660	320
661	273
662	295
663	296
664	298
665	261
666	280
667	281
668	309
669	315
670	318
671	299
672	345
673	308
674	303
675	259
676	265
677	287
678	263
679	280
680	274
681	271
682	270
683	258
684	285
685	282
686	283
687	302
688	306
689	272
690	289
691	260
692	268
693	295
694	310
695	282
696	273
697	267
698	305
699	272
700	299
701	294
702	282
703	267
704	275
705	272
706	259
707	287
708	257
709	284
710	306
711	298
712	270
713	267
714	294
715	285
716	262
717	274
718	275
719	271
720	287
721	280
722	294
723	278
724	256
725	263
726	274
727	283
728	258
729	265
730	297
731	329
732	310
733	296
734	273
735	288
736	305
737	277
738	274
739	256
740	287
741	281
742	294
743	259
744	268
745	277
746	313
747	269
748	264
749	293
750	280
751	291
752	258
753	286
754	270
755	288
756	253
757	273
758	263
759	251
760	271
761	281
762	250
763	283
764	255
765	278
766	255
767	249
768	285
769	290
770	254
771	242
772	274
773	305
774	229
775	237
776	264
777	254
778	255
779	237
780	241
781	287
782	252
783	263
784	285
785	247
786	261
787	265
788	290
789	251
790	290
791	252
792	247
793	279
794	263
795	278
796	235
797	245
798	287
799	245
800	272
801	279
802	277
803	251
804	238
805	249
806	274
807	246
808	241
809	260
810	287
811	274
812	234
813	263
814	227
815	223
816	236
817	263
818	274
819	256
820	282
821	257
822	276
823	259
824	277
825	238
826	284
827	257
828	242
829	248
830	261
831	227
832	255
833	247
834	286
835	277
836	275
837	224
838	256
839	256
840	259
841	278
842	272
843	250
844	267
845	250
846	237
847	271
848	240
849	245
850	263
851	266
852	254
853	253
854	251
855	234
856	260
857	267
858	247
859	257
860	248
861	262
862	253
863	262
864	254
865	243
866	234
867	276
868	252
869	248
870	253
871	261
872	260
873	264
874	252
875	254
876	267
877	247
878	247
879	240
880	237
881	240
882	234
883	247
884	240
885	239
886	265
887	265
888	284
889	255
890	256
891	231
892	252
893	238
894	265
895	229
896	254
897	259
898	249
899	257
900	231
901	239
902	241
903	222
904	231
905	252
906	258
907	225
908	249
909	253
910	226
911	241
912	251
913	252
914	243
915	255
916	262
917	254
918	227
919	240
920	261
921	258
922	222
923	231
924	237
925	219
926	261
927	262
928	244
929	255
930	225
931	245
932	243
933	252
934	236
935	209
936	244
937	228
938	231
939	209
940	248
941	256
942	244
943	265
944	244
945	249
946	232
947	228
948	258
949	264
950	214
951	245
952	248
953	212
954	245
955	216
956	219
957	243
958	233
959	230
960	225
961	234
962	230
963	224
964	249
965	251
966	239
967	204
968	249
969	219
970	232
971	235
972	233
973	182
974	247
975	246
976	251
977	225
978	232
979	241
980	211
981	262
982	230
983	229
984	221
985	222
986	221
987	257
988	222
989	267
990	248
991	213
992	219
993	246
994	253
995	240
996	247
997	219
998	251
999	230
1000	245
1001	211
1002	206
1003	215
1004	234
1005	219
1006	214
1007	214
1008	223
1009	201
1010	239
1011	225
1012	244
1013	231
1014	222
1015	226
1016	226
1017	247
1018	207
1019	244
1020	214
1021	214
1022	242
1023	229
1024	242
1025	198
1026	236
1027	248
1028	245
1029	219
1030	223
1031	232
1032	229
1033	195
1034	205
1035	223
1036	198
1037	217
1038	238
1039	240
1040	204
1041	243
1042	236
1043	238
1044	194
1045	223
1046	221
1047	203
1048	221
1049	222
1050	226
1051	221
1052	250
1053	235
1054	240
1055	211
1056	215
1057	204
1058	212
1059	218
1060	240
1061	216
1062	226
1063	228
1064	200
1065	239
1066	246
1067	232
1068	204
1069	214
1070	223
1071	216
1072	210
1073	224
1074	217
1075	237
1076	202
1077	206
1078	198
1079	211
1080	226
1081	225
1082	220
1083	255
1084	225
1085	210
1086	216
1087	201
1088	185
1089	247
1090	224
1091	233
1092	221
1093	206
1094	201
1095	209
1096	247
1097	182
1098	239
1099	225
1100	219
1101	225
1102	193
1103	217
1104	196
1105	212
1106	198
1107	212
1108	214
1109	227
1110	192
1111	233
1112	205
1113	226
1114	222
1115	223
1116	230
1117	222
1118	216
1119	225
1120	237
1121	241
1122	235
1123	194
1124	216
1125	208
1126	209
1127	214
1128	203
1129	230
1130	241
1131	194
1132	233
1133	217
1134	218
1135	229
1136	223
1137	222
1138	235
1139	221
1140	210
1141	232
1142	207
1143	220
1144	223
1145	224
1146	232
1147	232
1148	210
1149	215
1150	225
1151	234
1152	219
1153	222
1154	267
1155	226
1156	218
1157	221
1158	229
1159	226
1160	254
1161	184
1162	202
1163	229
1164	215
1165	222
1166	191
1167	207
1168	235
1169	235
1170	203
1171	255
1172	215
1173	203
1174	222
1175	236
1176	219
1177	216
1178	239
1179	215
1180	226
1181	237
1182	214
1183	239
1184	235
1185	210
1186	212
1187	228
1188	212
1189	213
1190	221
1191	231
1192	240
1193	244
1194	224
1195	241
1196	229
1197	248
1198	206
1199	219
1200	214
1201	219
1202	247
1203	221
1204	226
1205	241
1206	233
1207	210
1208	231
1209	257
1210	228
1211	231
1212	196
1213	201
1214	222
1215	216
1216	224
1217	218
1218	246
1219	262
1220	244
1221	240
1222	237
1223	239
1224	232
1225	229
1226	235
1227	200
1228	238
1229	236
1230	245
1231	246
1232	235
1233	243
1234	242
1235	266
1236	244
1237	204
1238	239
1239	251
1240	250
1241	225
1242	220
1243	235
1244	224
1245	236
1246	233
1247	213
1248	253
1249	225
1250	236
1251	218
1252	248
1253	234
1254	222
1255	245
1256	255
1257	244
1258	251
1259	266
1260	245
1261	235
1262	241
1263	256
1264	235
1265	238
1266	256
1267	255
1268	255
1269	248
1270	220
1271	264
1272	273
1273	247
1274	235
1275	221
1276	248
1277	230
1278	247
1279	214
1280	238
1281	222
1282	260
1283	261
1284	234
1285	251
1286	263
1287	241
1288	249
1289	224
1290	246
1291	246
1292	246
1293	226
1294	217
1295	236
1296	248
1297	206
1298	236
1299	242
1300	239
1301	239
1302	224
1303	218
1304	201
1305	221
1306	231
1307	233
1308	228
1309	241
1310	216
1311	208
1312	189
1313	226
1314	203
1315	226
1316	221
1317	181
1318	193
1319	214
1320	210
1321	177
1322	195
1323	191
1324	177
1325	198
1326	201
1327	167
1328	187
1329	195
1330	185
1331	213
1332	183
1333	194
1334	175
1335	213
1336	189
1337	199
1338	194
1339	178
1340	195
1341	182
1342	205
1343	185
1344	204
1345	178
1346	164
1347	176
1348	188
1349	201
1350	196
1351	191
1352	181
1353	187
1354	203
1355	181
1356	190
1357	194
1358	183
1359	220
1360	199
1361	187
1362	186
1363	194
1364	228
1365	198
1366	193
1367	188
1368	203
1369	187
1370	176
1371	193
1372	174
1373	194
1374	180
1375	192
1376	177
1377	192
1378	184
1379	192
1380	201
1381	216
1382	234
1383	253
1384	299
1385	380
1386	521
1387	637
1388	785
1389	986
1390	1088
1391	1068
1392	1057
1393	929
1394	753
1395	599
1396	459
1397	352
1398	271
1399	237
1400	208
1401	183
1402	186
1403	211
1404	180
1405	186
1406	153
1407	182
1408	159
1409	155
1410	183
1411	189
1412	158
1413	186
1414	175
1415	165
1416	176
1417	189
1418	161
1419	140
1420	165
1421	192
1422	158
1423	163
1424	158
1425	152
1426	172
1427	170
1428	169
1429	169
1430	170
1431	166
1432	176
1433	177
1434	173
1435	169
1436	177
1437	180
1438	162
1439	164
1440	168
1441	165
1442	167
1443	157
1444	156
1445	173
1446	164
1447	157
1448	171
1449	146
1450	175
1451	180
1452	172
1453	155
1454	170
1455	148
1456	151
1457	175
1458	158
1459	158
1460	141
1461	183
1462	175
1463	173
1464	163
1465	176
1466	161
1467	169
1468	175
1469	158
1470	154
1471	152
1472	168
1473	178
1474	155
1475	160
1476	165
1477	163
1478	172
1479	157
1480	138
1481	148
1482	177
1483	189
1484	165
1485	147
1486	169
1487	172
1488	153
1489	164
1490	180
1491	149
1492	164
1493	150
1494	156
1495	157
1496	142
1497	157
1498	163
1499	176
1500	152
1501	151
1502	156
1503	160
1504	145
1505	152
1506	168
1507	153
1508	176
1509	143
1510	144
1511	151
1512	168
1513	165
1514	149
1515	138
1516	154
1517	154
1518	160
1519	175
1520	156
1521	139
1522	181
1523	147
1524	143
1525	157
1526	167
1527	151
1528	183
1529	150
1530	136
1531	168
1532	160
1533	162
1534	138
1535	133
1536	156
1537	150
1538	169
1539	161
1540	146
1541	153
1542	148
1543	175
1544	141
1545	150
1546	161
1547	142
1548	150
1549	170
1550	166
1551	143
1552	162
1553	167
1554	167
1555	144
1556	161
1557	168
1558	146
1559	152
1560	153
1561	153
1562	149
1563	156
1564	173
1565	161
1566	152
1567	159
1568	154
1569	142
1570	145
1571	149
1572	163
1573	156
1574	180
1575	146
1576	152
1577	151
1578	144
1579	163
1580	174
1581	156
1582	158
1583	156
1584	141
1585	164
1586	177
1587	145
1588	145
1589	170
1590	149
1591	134
1592	139
1593	157
1594	149
1595	158
1596	132
1597	160
1598	162
1599	136
1600	145
1601	155
1602	154
1603	121
1604	157
1605	155
1606	142
1607	156
1608	163
1609	159
1610	145
1611	159
1612	148
1613	145
1614	141
1615	168
1616	157
1617	150
1618	140
1619	126
1620	156
1621	156
1622	147
1623	142
1624	168
1625	158
1626	158
1627	144
1628	142
1629	161
1630	186
1631	154
1632	144
1633	168
1634	155
1635	144
1636	170
1637	168
1638	164
1639	167
1640	158
1641	179
1642	143
1643	162
1644	150
1645	161
1646	163
1647	159
1648	151
1649	153
1650	137
1651	175
1652	158
1653	156
1654	162
1655	162
1656	148
1657	153
1658	145
1659	165
1660	160
1661	135
1662	139
1663	138
1664	142
1665	144
1666	155
1667	160
1668	149
1669	161
1670	146
1671	157
1672	180
1673	132
1674	144
1675	153
1676	128
1677	160
1678	173
1679	159
1680	134
1681	179
1682	160
1683	151
1684	151
1685	145
1686	169
1687	168
1688	149
1689	146
1690	143
1691	144
1692	171
1693	178
1694	165
1695	162
1696	146
1697	170
1698	140
1699	135
1700	159
1701	170
1702	150
1703	176
1704	167
1705	150
1706	175
1707	150
1708	141
1709	143
1710	144
1711	150
1712	151
1713	148
1714	152
1715	151
1716	165
1717	157
1718	176
1719	153
1720	153
1721	154
1722	157
1723	156
1724	159
1725	161
1726	150
1727	145
1728	179
1729	169
1730	144
1731	143
1732	142
1733	171
1734	153
1735	154
1736	160
1737	158
1738	187
1739	174
1740	167
1741	182
1742	168
1743	149
1744	136
1745	184
1746	180
1747	159
1748	148
1749	173
1750	135
1751	163
1752	151
1753	134
1754	157
1755	157
1756	155
1757	172
1758	153
1759	136
1760	141
1761	157
1762	156
1763	166
1764	167
1765	162
1766	140
1767	163
1768	156
1769	158
1770	143
1771	171
1772	203
1773	230
1774	342
1775	471
1776	784
1777	1233
1778	2162
1779	3478
1780	4834
1781	5556
1782	5187
1783	4122
1784	2594
1785	1379
1786	631
1787	287
1788	171
1789	148
1790	129
1791	141
1792	145
1793	147
1794	175
1795	160
1796	124
1797	138
1798	154
1799	146
1800	148
1801	121
1802	172
1803	140
1804	181
1805	159
1806	128
1807	173
1808	146
1809	149
1810	159
1811	142
1812	163
1813	143
1814	150
1815	136
1816	140
1817	139
1818	174
1819	147
1820	149
1821	167
1822	148
1823	152
1824	143
1825	149
1826	142
1827	144
1828	174
1829	167
1830	179
1831	150
1832	153
1833	154
1834	153
1835	146
1836	159
1837	151
1838	151
1839	164
1840	150
1841	145
1842	144
1843	122
1844	144
1845	146
1846	142
1847	149
1848	151
1849	161
1850	144
1851	140
1852	141
1853	146
1854	132
1855	127
1856	132
1857	132
1858	147
1859	154
1860	147
1861	140
1862	139
1863	149
1864	150
1865	158
1866	170
1867	176
1868	126
1869	163
1870	144
1871	156
1872	153
1873	149
1874	155
1875	131
1876	143
1877	191
1878	147
1879	158
1880	156
1881	169
1882	135
1883	136
1884	134
1885	151
1886	150
1887	156
1888	138
1889	158
1890	141
1891	143
1892	142
1893	146
1894	142
1895	155
1896	133
1897	152
1898	127
1899	145
1900	166
1901	127
1902	145
1903	170
1904	149
1905	149
1906	144
1907	134
1908	154
1909	129
1910	140
1911	132
1912	145
1913	157
1914	131
1915	165
1916	148
1917	167
1918	164
1919	157
1920	171
1921	177
1922	138
1923	147
1924	168
1925	133
1926	158
1927	173
1928	162
1929	158
1930	128
1931	156
1932	136
1933	133
1934	156
1935	167
1936	163
1937	176
1938	158
1939	148
1940	150
1941	163
1942	168
1943	172
1944	159
1945	166
1946	166
1947	154
1948	147
1949	170
1950	135
1951	144
1952	149
1953	150
1954	154
1955	161
1956	158
1957	163
1958	153
1959	148
1960	139
1961	159
1962	160
1963	160
1964	155
1965	163
1966	160
1967	150
1968	156
1969	149
1970	168
1971	179
1972	155
1973	150
1974	152
1975	167
1976	143
1977	140
1978	137
1979	158
1980	150
1981	153
1982	178
1983	167
1984	167
1985	154
1986	159
1987	145
1988	126
1989	164
1990	157
1991	145
1992	148
1993	145
1994	165
1995	153
1996	169
1997	128
1998	156
1999	162
2000	169
2001	161
2002	188
2003	160
2004	155
2005	166
2006	154
2007	156
2008	151
2009	137
2010	144
2011	163
2012	183
2013	177
2014	173
2015	174
2016	159
2017	160
2018	177
2019	155
2020	168
2021	164
2022	160
2023	148
2024	162
2025	164
2026	154
2027	158
2028	170
2029	172
2030	168
2031	170
2032	156
2033	172
2034	146
2035	177
2036	177
2037	168
2038	171
2039	150
2040	159
2041	169
2042	167
2043	151
2044	163
2045	150
2046	148
2047	151
2048	170
2049	179
2050	160
2051	153
2052	168
2053	159
2054	170
2055	163
2056	159
2057	172
2058	149
2059	163
2060	185
2061	147
2062	159
2063	173
2064	176
2065	173
2066	147
2067	142
2068	157
2069	161
2070	169
2071	166
2072	181
2073	161
2074	165
2075	165
2076	161
2077	146
2078	158
2079	161
2080	157
2081	155
2082	157
2083	137
2084	173
2085	145
2086	167
2087	158
2088	143
2089	159
2090	174
2091	165
2092	181
2093	149
2094	153
2095	167
2096	164
2097	150
2098	185
2099	174
2100	188
2101	168
2102	161
2103	187
2104	166
2105	158
2106	156
2107	165
2108	184
2109	165
2110	145
2111	196
2112	168
2113	186
2114	161
2115	171
2116	174
2117	185
2118	152
2119	166
2120	165
2121	160
2122	162
2123	182
2124	143
2125	173
2126	178
2127	161
2128	153
2129	160
2130	183
2131	172
2132	190
2133	186
2134	168
2135	153
2136	167
2137	151
2138	177
2139	191
2140	144
2141	149
2142	159
2143	164
2144	182
2145	166
2146	177
2147	139
2148	175
2149	170
2150	164
2151	154
2152	182
2153	175
2154	152
2155	156
2156	188
2157	163
2158	174
2159	173
2160	164
2161	168
2162	172
2163	189
2164	186
2165	178
2166	168
2167	163
2168	144
2169	171
2170	161
2171	183
2172	177
2173	180
2174	172
2175	163
2176	175
2177	208
2178	173
2179	165
2180	185
2181	142
2182	184
2183	175
2184	198
2185	187
2186	188
2187	167
2188	173
2189	203
2190	152
2191	206
2192	173
2193	187
2194	176
2195	189
2196	218
2197	191
2198	189
2199	201
2200	209
2201	185
2202	152
2203	153
2204	166
2205	177
2206	192
2207	172
2208	162
2209	191
2210	180
2211	179
2212	172
2213	176
2214	177
2215	180
2216	176
2217	176
2218	177
2219	177
2220	185
2221	167
2222	198
2223	181
2224	182
2225	187
2226	180
2227	176
2228	184
2229	177
2230	168
2231	183
2232	176
2233	184
2234	177
2235	186
2236	183
2237	186
2238	195
2239	185
2240	168
2241	191
2242	162
2243	159
2244	173
2245	186
2246	170
2247	192
2248	180
2249	179
2250	172
2251	179
2252	186
2253	199
2254	182
2255	175
2256	189
2257	165
2258	209
2259	212
2260	183
2261	190
2262	193
2263	191
2264	207
2265	202
2266	187
2267	184
2268	203
2269	180
2270	186
2271	184
2272	183
2273	187
2274	186
2275	221
2276	208
2277	188
2278	192
2279	200
2280	196
2281	188
2282	196
2283	170
2284	208
2285	170
2286	185
2287	191
2288	168
2289	217
2290	197
2291	200
2292	179
2293	203
2294	187
2295	189
2296	194
2297	193
2298	216
2299	197
2300	167
2301	190
2302	198
2303	194
2304	196
2305	180
2306	189
2307	190
2308	174
2309	203
2310	208
2311	208
2312	194
2313	202
2314	225
2315	188
2316	199
2317	209
2318	223
2319	202
2320	201
2321	189
2322	194
2323	196
2324	174
2325	204
2326	215
2327	225
2328	199
2329	217
2330	206
2331	235
2332	180
2333	200
2334	203
2335	178
2336	232
2337	183
2338	222
2339	191
2340	218
2341	225
2342	189
2343	216
2344	207
2345	182
2346	202
2347	195
2348	213
2349	205
2350	212
2351	199
2352	216
2353	200
2354	209
2355	214
2356	211
2357	222
2358	202
2359	186
2360	205
2361	185
2362	207
2363	234
2364	213
2365	210
2366	201
2367	189
2368	185
2369	219
2370	235
2371	207
2372	201
2373	200
2374	206
2375	203
2376	181
2377	200
2378	191
2379	191
2380	220
2381	198
2382	209
2383	239
2384	203
2385	238
2386	197
2387	242
2388	206
2389	226
2390	232
2391	200
2392	216
2393	222
2394	207
2395	202
2396	241
2397	211
2398	217
2399	203
2400	193
2401	220
2402	217
2403	221
2404	195
2405	205
2406	220
2407	226
2408	239
2409	216
2410	210
2411	222
2412	207
2413	220
2414	241
2415	228
2416	223
2417	220
2418	195
2419	238
2420	217
2421	258
2422	239
2423	223
2424	226
2425	203
2426	223
2427	231
2428	239
2429	226
2430	219
2431	216
2432	194
2433	244
2434	221
2435	228
2436	238
2437	205
2438	233
2439	255
2440	229
2441	239
2442	262
2443	240
2444	221
2445	214
2446	224
2447	235
2448	234
2449	213
2450	224
2451	213
2452	232
2453	247
2454	245
2455	221
2456	231
2457	241
2458	247
2459	229
2460	213
2461	224
2462	219
2463	207
2464	259
2465	233
2466	264
2467	225
2468	254
2469	217
2470	246
2471	249
2472	237
2473	237
2474	225
2475	230
2476	264
2477	242
2478	248
2479	247
2480	244
2481	221
2482	233
2483	252
2484	221
2485	219
2486	227
2487	232
2488	242
2489	248
2490	248
2491	255
2492	270
2493	257
2494	238
2495	286
2496	238
2497	258
2498	250
2499	234
2500	250
2501	246
2502	258
2503	239
2504	239
2505	243
2506	251
2507	261
2508	277
2509	251
2510	273
2511	285
2512	270
2513	264
2514	253
2515	247
2516	254
2517	240
2518	275
2519	278
2520	270
2521	287
2522	245
2523	255
2524	240
2525	278
2526	267
2527	259
2528	260
2529	236
2530	268
2531	277
2532	258
2533	243
2534	276
2535	264
2536	264
2537	259
2538	265
2539	255
2540	270
2541	266
2542	287
2543	261
2544	274
2545	242
2546	305
2547	283
2548	266
2549	255
2550	244
2551	276
2552	279
2553	229
2554	226
2555	260
2556	243
2557	277
2558	256
2559	227
2560	251
2561	251
2562	257
2563	255
2564	235
2565	252
2566	224
2567	201
2568	235
2569	234
2570	194
2571	221
2572	234
2573	225
2574	233
2575	180
2576	236
2577	199
2578	216
2579	206
2580	195
2581	210
2582	217
2583	207
2584	226
2585	200
2586	192
2587	215
2588	220
2589	189
2590	238
2591	168
2592	194
2593	202
2594	183
2595	182
2596	227
2597	180
2598	209
2599	208
2600	217
2601	214
2602	208
2603	192
2604	176
2605	200
2606	234
2607	197
2608	217
2609	203
2610	216
2611	202
2612	202
2613	191
2614	177
2615	198
2616	227
2617	177
2618	207
2619	211
2620	180
2621	185
2622	226
2623	208
2624	187
2625	186
2626	210
2627	199
2628	199
2629	184
2630	211
2631	217
2632	182
2633	179
2634	197
2635	206
2636	190
2637	226
2638	192
2639	191
2640	191
2641	199
2642	178
2643	198
2644	184
2645	187
2646	159
2647	191
2648	189
2649	202
2650	220
2651	201
2652	177
2653	219
2654	195
2655	209
2656	172
2657	172
2658	195
2659	206
2660	196
2661	200
2662	191
2663	194
2664	199
2665	172
2666	191
2667	194
2668	192
2669	167
2670	192
2671	209
2672	181
2673	179
2674	171
2675	194
2676	198
2677	189
2678	189
2679	211
2680	173
2681	192
2682	207
2683	177
2684	185
2685	174
2686	165
2687	176
2688	169
2689	163
2690	171
2691	185
2692	177
2693	190
2694	200
2695	176
2696	185
2697	187
2698	171
2699	178
2700	184
2701	192
2702	184
2703	162
2704	194
2705	177
2706	181
2707	180
2708	176
2709	155
2710	190
2711	176
2712	170
2713	191
2714	158
2715	175
2716	189
2717	187
2718	182
2719	180
2720	174
2721	176
2722	184
2723	176
2724	157
2725	172
2726	156
2727	166
2728	173
2729	154
2730	171
2731	203
2732	188
2733	176
2734	167
2735	164
2736	184
2737	168
2738	190
2739	174
2740	192
2741	178
2742	173
2743	188
2744	195
2745	172
2746	160
2747	163
2748	160
2749	190
2750	178
2751	162
2752	188
2753	172
2754	175
2755	156
2756	178
2757	168
2758	169
2759	186
2760	175
2761	170
2762	159
2763	165
2764	191
2765	195
2766	179
2767	194
2768	194
2769	171
2770	177
2771	157
2772	154
2773	166
2774	188
2775	161
2776	153
2777	181
2778	184
2779	162
2780	186
2781	166
2782	168
2783	156
2784	190
2785	170
2786	189
2787	160
2788	164
2789	176
2790	155
2791	165
2792	171
2793	174
2794	159
2795	148
2796	153
2797	159
2798	158
2799	168
2800	185
2801	191
2802	176
2803	173
2804	162
2805	163
2806	167
2807	182
2808	181
2809	175
2810	205
2811	184
2812	160
2813	135
2814	172
2815	129
2816	158
2817	179
2818	160
2819	154
2820	167
2821	196
2822	156
2823	169
2824	150
2825	159
2826	163
2827	165
2828	145
2829	170
2830	155
2831	156
2832	166
2833	154
2834	153
2835	169
2836	147
2837	185
2838	180
2839	149
2840	157
2841	154
2842	180
2843	166
2844	202
2845	175
2846	158
2847	155
2848	199
2849	181
2850	154
2851	171
2852	179
2853	177
2854	150
2855	158
2856	153
2857	188
2858	142
2859	189
2860	154
2861	159
2862	174
2863	167
2864	166
2865	172
2866	167
2867	175
2868	162
2869	176
2870	165
2871	156
2872	165
2873	174
2874	170
2875	188
2876	159
2877	160
2878	174
2879	161
2880	172
2881	174
2882	196
2883	196
2884	166
2885	168
2886	179
2887	179
2888	181
2889	191
2890	184
2891	157
2892	177
2893	161
2894	158
2895	167
2896	164
2897	173
2898	167
2899	163
2900	171
2901	150
2902	159
2903	169
2904	177
2905	184
2906	161
2907	161
2908	172
2909	163
2910	169
2911	197
2912	169
2913	182
2914	146
2915	214
2916	171
2917	182
2918	154
2919	181
2920	167
2921	173
2922	169
2923	183
2924	161
2925	176
2926	196
2927	190
2928	186
2929	178
2930	190
2931	190
2932	185
2933	186
2934	188
2935	167
2936	168
2937	186
2938	217
2939	172
2940	192
2941	193
2942	167
2943	191
2944	173
2945	214
2946	183
2947	194
2948	179
2949	209
2950	185
2951	199
2952	170
2953	169
2954	177
2955	171
2956	164
2957	168
2958	184
2959	169
2960	152
2961	164
2962	153
2963	140
2964	149
2965	152
2966	151
2967	145
2968	152
2969	131
2970	161
2971	142
2972	139
2973	129
2974	161
2975	138
2976	124
2977	131
2978	139
2979	149
2980	132
2981	121
2982	113
2983	125
2984	126
2985	129
2986	123
2987	114
2988	122
2989	118
2990	120
2991	111
2992	134
2993	124
2994	124
2995	133
2996	135
2997	124
2998	109
2999	133
3000	111
3001	112
3002	115
3003	123
3004	115
3005	120
3006	104
3007	139
3008	95
3009	99
3010	108
3011	102
3012	107
3013	117
3014	129
3015	142
3016	96
3017	108
3018	111
3019	92
3020	111
3021	116
3022	118
3023	129
3024	105
3025	121
3026	118
3027	78
3028	109
3029	113
3030	124
3031	107
3032	118
3033	119
3034	123
3035	103
3036	114
3037	111
3038	103
3039	96
3040	96
3041	103
3042	125
3043	126
3044	120
3045	110
3046	99
3047	90
3048	100
3049	105
3050	106
3051	98
3052	130
3053	82
3054	103
3055	116
3056	106
3057	99
3058	110
3059	96
3060	90
3061	89
3062	116
3063	97
3064	99
3065	88
3066	102
3067	113
3068	95
3069	107
3070	102
3071	99
3072	92
3073	93
3074	124
3075	108
3076	94
3077	92
3078	97
3079	92
3080	105
3081	95
3082	110
3083	94
3084	108
3085	113
3086	93
3087	107
3088	98
3089	108
3090	98
3091	89
3092	105
3093	89
3094	102
3095	118
3096	145
3097	194
3098	250
3099	373
3100	639
3101	1202
3102	2052
3103	3504
3104	5424
3105	7498
3106	9039
3107	9680
3108	8782
3109	6538
3110	4040
3111	2215
3112	996
3113	444
3114	219
3115	124
3116	121
3117	101
3118	117
3119	108
3120	104
3121	95
3122	110
3123	98
3124	99
3125	101
3126	73
3127	97
3128	93
3129	104
3130	106
3131	74
3132	88
3133	77
3134	74
3135	102
3136	90
3137	72
3138	93
3139	81
3140	74
3141	74
3142	78
3143	71
3144	95
3145	92
3146	77
3147	84
3148	84
3149	76
3150	82
3151	76
3152	77
3153	70
3154	71
3155	87
3156	70
3157	86
3158	70
3159	98
3160	74
3161	83
3162	73
3163	72
3164	63
3165	54
3166	76
3167	60
3168	70
3169	56
3170	71
3171	81
3172	75
3173	72
3174	74
3175	83
3176	69
3177	57
3178	65
3179	51
3180	66
3181	60
3182	72
3183	68
3184	72
3185	60
3186	60
3187	70
3188	72
3189	59
3190	68
3191	55
3192	66
3193	68
3194	54
3195	54
3196	67
3197	61
3198	72
3199	57
3200	49
3201	47
3202	48
3203	48
3204	54
3205	55
3206	63
3207	55
3208	60
3209	46
3210	70
3211	44
3212	49
3213	51
3214	60
3215	51
3216	61
3217	59
3218	55
3219	53
3220	56
3221	55
3222	53
3223	65
3224	47
3225	51
3226	56
3227	36
3228	42
3229	42
3230	40
3231	41
3232	48
3233	41
3234	55
3235	50
3236	39
3237	48
3238	47
3239	49
3240	42
3241	46
3242	34
3243	40
3244	47
3245	52
3246	48
3247	49
3248	49
3249	48
3250	54
3251	42
3252	54
3253	55
3254	40
3255	44
3256	38
3257	38
3258	50
3259	36
3260	60
3261	64
3262	43
3263	36
3264	44
3265	44
3266	36
3267	43
3268	36
3269	46
3270	43
3271	37
3272	37
3273	44
3274	42
3275	49
3276	44
3277	43
3278	38
3279	40
3280	40
3281	43
3282	31
3283	33
3284	46
3285	39
3286	36
3287	37
3288	38
3289	43
3290	40
3291	28
3292	41
3293	30
3294	41
3295	40
3296	40
3297	37
3298	38
3299	29
3300	44
3301	34
3302	46
3303	41
3304	29
3305	33
3306	35
3307	29
3308	42
3309	38
3310	36
3311	41
3312	28
3313	29
3314	43
3315	31
3316	45
3317	36
3318	49
3319	33
3320	36
3321	51
3322	24
3323	38
3324	35
3325	38
3326	38
3327	35
3328	36
3329	44
3330	40
3331	30
3332	35
3333	36
3334	39
3335	33
3336	36
3337	39
3338	32
3339	33
3340	40
3341	40
3342	33
3343	44
3344	37
3345	37
3346	43
3347	31
3348	37
3349	38
3350	28
3351	40
3352	35
3353	37
3354	36
3355	40
3356	29
3357	40
3358	38
3359	49
3360	37
3361	43
3362	43
3363	58
3364	86
3365	126
3366	179
3367	262
3368	342
3369	359
3370	346
3371	291
3372	216
3373	149
3374	63
3375	49
3376	37
3377	38
3378	35
3379	26
3380	46
3381	40
3382	41
3383	37
3384	31
3385	41
3386	34
3387	48
3388	39
3389	35
3390	37
3391	33
3392	33
3393	24
3394	25
3395	18
3396	29
3397	38
3398	32
3399	23
3400	37
3401	35
3402	36
3403	39
3404	34
3405	38
3406	19
3407	40
3408	24
3409	32
3410	30
3411	28
3412	23
3413	38
3414	30
3415	35
3416	37
3417	27
3418	29
3419	28
3420	30
3421	22
3422	28
3423	31
3424	22
3425	28
3426	36
3427	29
3428	34
3429	31
3430	37
3431	41
3432	32
3433	36
3434	29
3435	38
3436	30
3437	26
3438	28
3439	34
3440	34
3441	33
3442	37
3443	32
3444	20
3445	35
3446	28
3447	35
3448	35
3449	37
3450	37
3451	34
3452	27
3453	30
3454	47
3455	22
3456	26
3457	28
3458	24
3459	24
3460	26
3461	40
3462	31
3463	34
3464	38
3465	24
3466	34
3467	37
3468	33
3469	31
3470	35
3471	34
3472	30
3473	37
3474	20
3475	27
3476	31
3477	21
3478	29
3479	25
3480	29
3481	17
3482	46
3483	20
3484	36
3485	29
3486	34
3487	27
3488	29
3489	27
3490	34
3491	23
3492	31
3493	38
3494	34
3495	29
3496	29
3497	26
3498	34
3499	28
3500	34
3501	30
3502	34
3503	39
3504	39
3505	41
3506	36
3507	34
3508	60
3509	87
3510	129
3511	218
3512	371
3513	690
3514	1155
3515	2040
3516	3409
3517	5355
3518	6960
3519	8244
3520	8440
3521	7278
3522	5188
3523	3200
3524	1673
3525	721
3526	278
3527	114
3528	68
3529	58
3530	48
3531	52
3532	54
3533	54
3534	49
3535	51
3536	40
3537	39
3538	48
3539	44
3540	35
3541	41
3542	37
3543	30
3544	36
3545	27
3546	26
3547	24
3548	32
3549	33
3550	35
3551	37
3552	37
3553	27
3554	19
3555	16
3556	35
3557	21
3558	35
3559	33
3560	29
3561	18
3562	36
3563	26
3564	26
3565	23
3566	36
3567	29
3568	27
3569	26
3570	37
3571	28
3572	21
3573	34
3574	26
3575	20
3576	24
3577	24
3578	17
3579	37
3580	38
3581	29
3582	25
3583	32
3584	32
3585	24
3586	21
3587	27
3588	37
3589	24
3590	25
3591	31
3592	22
3593	22
3594	26
3595	32
3596	29
3597	24
3598	27
3599	21
3600	27
3601	17
3602	16
3603	21
3604	20
3605	27
3606	23
3607	23
3608	23
3609	38
3610	29
3611	30
3612	24
3613	22
3614	40
3615	25
3616	23
3617	23
3618	28
3619	23
3620	26
3621	28
3622	30
3623	27
3624	25
3625	22
3626	31
3627	22
3628	21
3629	22
3630	25
3631	22
3632	24
3633	21
3634	28
3635	32
3636	19
3637	25
3638	32
3639	18
3640	27
3641	25
3642	19
3643	24
3644	15
3645	29
3646	33
3647	23
3648	17
3649	23
3650	27
3651	16
3652	27
3653	25
3654	19
3655	22
3656	18
3657	31
3658	20
3659	27
3660	18
3661	26
3662	23
3663	30
3664	23
3665	27
3666	21
3667	22
3668	21
3669	14
3670	21
3671	24
3672	17
3673	19
3674	22
3675	29
3676	24
3677	30
3678	24
3679	24
3680	22
3681	29
3682	17
3683	29
3684	27
3685	25
3686	23
3687	27
3688	18
3689	25
3690	30
3691	26
3692	33
3693	16
3694	19
3695	12
3696	23
3697	29
3698	21
3699	19
3700	25
3701	27
3702	23
3703	22
3704	15
3705	14
3706	23
3707	21
3708	28
3709	29
3710	27
3711	28
3712	31
3713	28
3714	24
3715	15
3716	24
3717	20
3718	24
3719	23
3720	16
3721	20
3722	18
3723	18
3724	20
3725	21
3726	21
3727	18
3728	19
3729	21
3730	21
3731	19
3732	24
3733	23
3734	12
3735	28
3736	15
3737	27
3738	22
3739	18
3740	23
3741	18
3742	19
3743	26
3744	22
3745	21
3746	26
3747	19
3748	17
3749	19
3750	19
3751	19
3752	23
3753	23
3754	32
3755	30
3756	20
3757	25
3758	20
3759	27
3760	20
3761	16
3762	21
3763	24
3764	21
3765	28
3766	21
3767	22
3768	15
3769	23
3770	23
3771	27
3772	27
3773	18
3774	27
3775	18
3776	17
3777	27
3778	26
3779	28
3780	23
3781	18
3782	30
3783	20
3784	16
3785	20
3786	22
3787	16
3788	12
3789	18
3790	21
3791	23
3792	23
3793	17
3794	27
3795	17
3796	20
3797	19
3798	17
3799	14
3800	26
3801	21
3802	17
3803	20
3804	23
3805	18
3806	12
3807	30
3808	17
3809	22
3810	27
3811	27
3812	21
3813	14
3814	20
3815	17
3816	17
3817	16
3818	25
3819	14
3820	13
3821	18
3822	17
3823	19
3824	21
3825	18
3826	21
3827	22
3828	23
3829	15
3830	23
3831	19
3832	21
3833	16
3834	20
3835	20
3836	13
3837	16
3838	20
3839	23
3840	27
3841	13
3842	15
3843	23
3844	26
3845	27
3846	21
3847	16
3848	19
3849	20
3850	25
3851	24
3852	28
3853	18
3854	18
3855	18
3856	16
3857	16
3858	20
3859	25
3860	21
3861	21
3862	20
3863	23
3864	24
3865	20
3866	26
3867	21
3868	19
3869	19
3870	15
3871	20
3872	24
3873	27
3874	19
3875	22
3876	23
3877	13
3878	18
3879	19
3880	25
3881	16
3882	15
3883	29
3884	29
3885	20
3886	19
3887	20
3888	18
3889	23
3890	26
3891	22
3892	21
3893	18
3894	19
3895	19
3896	20
3897	15
3898	21
3899	29
3900	19
3901	14
3902	23
3903	23
3904	28
3905	30
3906	28
3907	21
3908	9
3909	18
3910	23
3911	20
3912	26
3913	23
3914	26
3915	17
3916	19
3917	19
3918	21
3919	13
3920	20
3921	13
3922	23
3923	16
3924	19
3925	19
3926	21
3927	25
3928	16
3929	20
3930	22
3931	28
3932	21
3933	15
3934	26
3935	13
3936	19
3937	26
3938	21
3939	18
3940	20
3941	18
3942	19
3943	21
3944	20
3945	16
3946	16
3947	19
3948	17
3949	20
3950	15
3951	19
3952	12
3953	19
3954	19
3955	12
3956	15
3957	20
3958	9
3959	24
3960	18
3961	16
3962	21
3963	17
3964	20
3965	21
3966	16
3967	17
3968	25
3969	18
3970	19
3971	24
3972	22
3973	12
3974	20
3975	13
3976	16
3977	19
3978	17
3979	21
3980	14
3981	25
3982	20
3983	16
3984	23
3985	24
3986	16
3987	18
3988	13
3989	16
3990	17
3991	18
3992	14
3993	25
3994	18
3995	21
3996	18
3997	24
3998	18
3999	22
4000	22
4001	23
4002	16
4003	17
4004	16
4005	11
4006	18
4007	11
4008	25
4009	26
4010	11
4011	22
4012	21
4013	23
4014	15
4015	20
4016	22
4017	17
4018	15
4019	15
4020	9
4021	15
4022	20
4023	27
4024	20
4025	21
4026	18
4027	8
4028	21
4029	23
4030	18
4031	14
4032	19
4033	19
4034	18
4035	20
4036	15
4037	16
4038	20
4039	16
4040	21
4041	19
4042	21
4043	18
4044	19
4045	18
4046	16
4047	20
4048	21
4049	22
4050	19
4051	20
4052	14
4053	11
4054	24
4055	18
4056	14
4057	19
4058	19
4059	13
4060	17
4061	14
4062	14
4063	12
4064	24
4065	19
4066	16
4067	15
4068	15
4069	24
4070	31
4071	21
4072	16
4073	16
4074	20
4075	15
4076	23
4077	13
4078	18
4079	21
4080	23
4081	21
4082	13
4083	12
4084	22
4085	16
4086	16
4087	15
4088	18
4089	23
4090	21
4091	15
4092	23
4093	15
4094	22
4095	16
4096	18
4097	20
4098	16
4099	21
4100	12
4101	17
4102	20
4103	17
4104	16
4105	13
4106	15
4107	22
4108	15
4109	18
4110	18
4111	23
4112	17
4113	16
4114	20
4115	25
4116	18
4117	26
4118	18
4119	18
4120	23
4121	25
4122	15
4123	30
4124	19
4125	9
4126	19
4127	19
4128	16
4129	15
4130	16
4131	16
4132	18
4133	16
4134	16
4135	21
4136	13
4137	18
4138	18
4139	15
4140	18
4141	16
4142	20
4143	19
4144	14
4145	12
4146	18
4147	28
4148	14
4149	19
4150	19
4151	21
4152	19
4153	16
4154	15
4155	16
4156	19
4157	13
4158	16
4159	23
4160	20
4161	20
4162	13
4163	16
4164	16
4165	21
4166	11
4167	16
4168	16
4169	15
4170	21
4171	11
4172	24
4173	15
4174	17
4175	13
4176	12
4177	19
4178	11
4179	16
4180	22
4181	21
4182	12
4183	14
4184	21
4185	18
4186	26
4187	12
4188	16
4189	15
4190	10
4191	23
4192	18
4193	16
4194	13
4195	13
4196	21
4197	19
4198	20
4199	14
4200	18
4201	19
4202	18
4203	10
4204	15
4205	11
4206	15
4207	12
4208	18
4209	20
4210	17
4211	20
4212	22
4213	17
4214	14
4215	17
4216	19
4217	18
4218	19
4219	17
4220	9
4221	13
4222	19
4223	21
4224	15
4225	14
4226	20
4227	12
4228	18
4229	19
4230	15
4231	20
4232	12
4233	20
4234	20
4235	20
4236	15
4237	15
4238	13
4239	12
4240	16
4241	14
4242	16
4243	16
4244	18
4245	9
4246	14
4247	18
4248	16
4249	18
4250	23
4251	8
4252	17
4253	20
4254	15
4255	9
4256	15
4257	17
4258	22
4259	14
4260	13
4261	18
4262	21
4263	14
4264	16
4265	15
4266	19
4267	15
4268	13
4269	10
4270	18
4271	9
4272	20
4273	16
4274	15
4275	16
4276	17
4277	19
4278	17
4279	19
4280	13
4281	17
4282	14
4283	13
4284	17
4285	15
4286	16
4287	14
4288	26
4289	17
4290	14
4291	7
4292	20
4293	19
4294	14
4295	22
4296	14
4297	17
4298	12
4299	16
4300	15
4301	23
4302	15
4303	21
4304	14
4305	16
4306	11
4307	12
4308	22
4309	17
4310	14
4311	14
4312	12
4313	21
4314	18
4315	19
4316	13
4317	13
4318	20
4319	17
4320	14
4321	12
4322	13
4323	24
4324	18
4325	23
4326	20
4327	11
4328	15
4329	21
4330	13
4331	18
4332	15
4333	19
4334	12
4335	15
4336	14
4337	19
4338	15
4339	12
4340	14
4341	23
4342	19
4343	24
4344	14
4345	15
4346	11
4347	20
4348	23
4349	16
4350	17
4351	17
4352	23
4353	20
4354	18
4355	10
4356	8
4357	10
4358	13
4359	18
4360	25
4361	21
4362	13
4363	13
4364	23
4365	23
4366	10
4367	16
4368	12
4369	12
4370	15
4371	15
4372	10
4373	17
4374	14
4375	13
4376	12
4377	17
4378	18
4379	15
4380	19
4381	16
4382	10
4383	20
4384	18
4385	16
4386	16
4387	16
4388	10
4389	14
4390	20
4391	20
4392	15
4393	10
4394	14
4395	12
4396	18
4397	15
4398	17
4399	7
4400	18
4401	16
4402	15
4403	11
4404	13
4405	12
4406	17
4407	15
4408	16
4409	19
4410	19
4411	17
4412	13
4413	19
4414	15
4415	13
4416	12
4417	14
4418	12
4419	13
4420	5
4421	15
4422	18
4423	21
4424	18
4425	15
4426	13
4427	18
4428	27
4429	19
4430	14
4431	18
4432	11
4433	19
4434	23
4435	19
4436	17
4437	16
4438	10
4439	10
4440	12
4441	14
4442	10
4443	13
4444	17
4445	12
4446	20
4447	20
4448	13
4449	12
4450	18
4451	15
4452	15
4453	11
4454	15
4455	11
4456	16
4457	12
4458	24
4459	12
4460	24
4461	27
4462	7
4463	11
4464	12
4465	14
4466	15
4467	9
4468	12
4469	15
4470	13
4471	8
4472	20
4473	12
4474	20
4475	11
4476	15
4477	18
4478	18
4479	13
4480	13
4481	16
4482	22
4483	17
4484	10
4485	18
4486	16
4487	15
4488	21
4489	24
4490	20
4491	16
4492	9
4493	17
4494	10
4495	9
4496	16
4497	9
4498	14
4499	15
4500	10
4501	9
4502	17
4503	12
4504	12
4505	15
4506	13
4507	17
4508	14
4509	14
4510	16
4511	19
4512	16
4513	14
4514	15
4515	13
4516	10
4517	18
4518	13
4519	19
4520	9
4521	10
4522	19
4523	16
4524	25
4525	15
4526	7
4527	9
4528	18
4529	17
4530	22
4531	7
4532	14
4533	12
4534	16
4535	15
4536	20
4537	15
4538	7
4539	15
4540	13
4541	9
4542	17
4543	18
4544	8
4545	24
4546	21
4547	16
4548	12
4549	11
4550	17
4551	17
4552	9
4553	15
4554	12
4555	15
4556	9
4557	16
4558	16
4559	15
4560	11
4561	9
4562	13
4563	19
4564	17
4565	20
4566	17
4567	17
4568	14
4569	18
4570	15
4571	20
4572	13
4573	14
4574	12
4575	14
4576	14
4577	9
4578	14
4579	11
4580	16
4581	18
4582	12
4583	22
4584	18
4585	7
4586	10
4587	13
4588	16
4589	16
4590	15
4591	19
4592	13
4593	17
4594	13
4595	19
4596	10
4597	18
4598	10
4599	14
4600	15
4601	16
4602	13
4603	10
4604	11
4605	21
4606	21
4607	14
4608	13
4609	22
4610	19
4611	14
4612	16
4613	24
4614	17
4615	15
4616	22
4617	15
4618	15
4619	20
4620	16
4621	16
4622	10
4623	14
4624	10
4625	14
4626	12
4627	10
4628	17
4629	16
4630	18
4631	13
4632	18
4633	16
4634	13
4635	14
4636	18
4637	16
4638	17
4639	13
4640	12
4641	17
4642	16
4643	13
4644	21
4645	13
4646	16
4647	12
4648	18
4649	14
4650	15
4651	21
4652	15
4653	16
4654	20
4655	9
4656	24
4657	15
4658	20
4659	10
4660	15
4661	11
4662	13
4663	6
4664	9
4665	15
4666	17
4667	14
4668	18
4669	22
4670	24
4671	14
4672	17
4673	15
4674	20
4675	12
4676	14
4677	15
4678	11
4679	15
4680	18
4681	14
4682	13
4683	11
4684	10
4685	15
4686	17
4687	14
4688	13
4689	12
4690	21
4691	18
4692	17
4693	20
4694	21
4695	17
4696	17
4697	16
4698	29
4699	21
4700	16
4701	20
4702	16
4703	13
4704	13
4705	16
4706	13
4707	16
4708	11
4709	12
4710	10
4711	12
4712	10
4713	19
4714	15
4715	19
4716	16
4717	11
4718	15
4719	18
4720	12
4721	18
4722	9
4723	10
4724	17
4725	16
4726	13
4727	14
4728	13
4729	11
4730	19
4731	13
4732	13
4733	18
4734	16
4735	14
4736	13
4737	17
4738	14
4739	19
4740	13
4741	24
4742	9
4743	10
4744	13
4745	19
4746	14
4747	11
4748	11
4749	11
4750	12
4751	13
4752	10
4753	15
4754	11
4755	5
4756	9
4757	19
4758	13
4759	12
4760	16
4761	20
4762	5
4763	17
4764	8
4765	18
4766	12
4767	13
4768	14
4769	14
4770	18
4771	21
4772	13
4773	21
4774	19
4775	20
4776	18
4777	18
4778	14
4779	18
4780	11
4781	16
4782	14
4783	22
4784	13
4785	16
4786	14
4787	10
4788	12
4789	12
4790	12
4791	14
4792	14
4793	11
4794	10
4795	12
4796	10
4797	9
4798	15
4799	14
4800	9
4801	11
4802	10
4803	9
4804	14
4805	12
4806	13
4807	11
4808	19
4809	19
4810	17
4811	17
4812	19
4813	20
4814	12
4815	24
4816	17
4817	13
4818	14
4819	21
4820	12
4821	18
4822	15
4823	12
4824	20
4825	18
4826	18
4827	13
4828	17
4829	18
4830	12
4831	6
4832	12
4833	13
4834	10
4835	7
4836	16
4837	16
4838	7
4839	9
4840	13
4841	14
4842	14
4843	16
4844	13
4845	16
4846	16
4847	14
4848	16
4849	6
4850	15
4851	12
4852	13
4853	18
4854	16
4855	13
4856	14
4857	19
4858	11
4859	11
4860	11
4861	9
4862	18
4863	25
4864	10
4865	7
4866	16
4867	8
4868	8
4869	12
4870	6
4871	10
4872	23
4873	14
4874	6
4875	8
4876	13
4877	19
4878	13
4879	17
4880	15
4881	11
4882	15
4883	8
4884	6
4885	13
4886	16
4887	21
4888	11
4889	18
4890	19
4891	8
4892	15
4893	10
4894	11
4895	18
4896	17
4897	10
4898	11
4899	15
4900	21
4901	12
4902	10
4903	7
4904	17
4905	14
4906	19
4907	13
4908	14
4909	12
4910	20
4911	10
4912	16
4913	9
4914	8
4915	20
4916	17
4917	16
4918	21
4919	11
4920	17
4921	11
4922	12
4923	15
4924	13
4925	10
4926	13
4927	15
4928	13
4929	21
4930	16
4931	9
4932	11
4933	14
4934	10
4935	13
4936	12
4937	12
4938	18
4939	6
4940	21
4941	9
4942	17
4943	17
4944	12
4945	11
4946	11
4947	12
4948	11
4949	16
4950	20
4951	15
4952	26
4953	10
4954	22
4955	15
4956	22
4957	8
4958	10
4959	14
4960	14
4961	13
4962	12
4963	12
4964	14
4965	16
4966	15
4967	14
4968	16
4969	14
4970	11
4971	16
4972	13
4973	14
4974	12
4975	9
4976	15
4977	13
4978	13
4979	15
4980	10
4981	15
4982	16
4983	21
4984	16
4985	13
4986	27
4987	9
4988	15
4989	5
4990	10
4991	12
4992	13
4993	10
4994	16
4995	18
4996	11
4997	10
4998	16
4999	10
5000	12
5001	13
5002	8
5003	17
5004	18
5005	13
5006	8
5007	8
5008	13
5009	14
5010	22
5011	14
5012	11
5013	16
5014	14
5015	13
5016	17
5017	8
5018	15
5019	15
5020	15
5021	13
5022	12
5023	16
5024	13
5025	9
5026	9
5027	12
5028	5
5029	15
5030	17
5031	21
5032	14
5033	11
5034	18
5035	12
5036	15
5037	7
5038	20
5039	11
5040	5
5041	11
5042	13
5043	15
5044	21
5045	20
5046	8
5047	16
5048	12
5049	14
5050	13
5051	17
5052	19
5053	10
5054	14
5055	18
5056	15
5057	17
5058	17
5059	8
5060	17
5061	20
5062	14
5063	11
5064	14
5065	16
5066	16
5067	11
5068	10
5069	17
5070	13
5071	12
5072	13
5073	16
5074	18
5075	12
5076	10
5077	18
5078	17
5079	15
5080	14
5081	12
5082	12
5083	14
5084	12
5085	15
5086	12
5087	8
5088	13
5089	15
5090	7
5091	7
5092	10
5093	13
5094	16
5095	13
5096	11
5097	14
5098	8
5099	12
5100	16
5101	15
5102	11
5103	16
5104	8
5105	13
5106	14
5107	17
5108	9
5109	17
5110	19
5111	10
5112	11
5113	15
5114	15
5115	14
5116	14
5117	23
5118	11
5119	14
5120	9
5121	10
5122	11
5123	13
5124	12
5125	11
5126	15
5127	11
5128	12
5129	19
5130	8
5131	13
5132	9
5133	17
5134	11
5135	15
5136	12
5137	9
5138	12
5139	13
5140	17
5141	15
5142	16
5143	15
5144	14
5145	14
5146	15
5147	16
5148	12
5149	7
5150	16
5151	16
5152	10
5153	18
5154	13
5155	11
5156	14
5157	13
5158	11
5159	11
5160	14
5161	15
5162	12
5163	15
5164	12
5165	15
5166	19
5167	18
5168	13
5169	14
5170	9
5171	10
5172	9
5173	13
5174	11
5175	9
5176	10
5177	14
5178	11
5179	16
5180	10
5181	9
5182	14
5183	23
5184	19
5185	9
5186	13
5187	7
5188	14
5189	17
5190	11
5191	19
5192	13
5193	20
5194	13
5195	16
5196	9
5197	7
5198	11
5199	10
5200	17
5201	11
5202	11
5203	11
5204	15
5205	12
5206	9
5207	16
5208	13
5209	12
5210	10
5211	10
5212	9
5213	22
5214	13
5215	18
5216	19
5217	10
5218	18
5219	7
5220	11
5221	14
5222	12
5223	19
5224	9
5225	18
5226	12
5227	16
5228	9
5229	12
5230	11
5231	16
5232	13
5233	12
5234	20
5235	17
5236	10
5237	17
5238	11
5239	16
5240	12
5241	11
5242	12
5243	11
5244	20
5245	20
5246	12
5247	10
5248	14
5249	10
5250	19
5251	11
5252	10
5253	13
5254	18
5255	15
5256	17
5257	7
5258	13
5259	10
5260	11
5261	13
5262	16
5263	12
5264	26
5265	22
5266	14
5267	14
5268	11
5269	10
5270	14
5271	18
5272	16
5273	15
5274	16
5275	12
5276	9
5277	19
5278	15
5279	6
5280	13
5281	8
5282	13
5283	4
5284	17
5285	8
5286	16
5287	11
5288	10
5289	16
5290	15
5291	17
5292	11
5293	13
5294	14
5295	16
5296	15
5297	15
5298	8
5299	13
5300	12
5301	12
5302	12
5303	11
5304	11
5305	10
5306	12
5307	10
5308	12
5309	12
5310	15
5311	18
5312	17
5313	22
5314	11
5315	13
5316	16
5317	12
5318	14
5319	9
5320	13
5321	10
5322	12
5323	17
5324	12
5325	12
5326	16
5327	16
5328	13
5329	6
5330	19
5331	16
5332	10
5333	13
5334	6
5335	11
5336	12
5337	14
5338	17
5339	16
5340	14
5341	15
5342	10
5343	12
5344	8
5345	15
5346	15
5347	14
5348	9
5349	9
5350	13
5351	16
5352	10
5353	17
5354	13
5355	8
5356	10
5357	9
5358	15
5359	13
5360	10
5361	8
5362	15
5363	14
5364	9
5365	14
5366	14
5367	16
5368	17
5369	13
5370	16
5371	16
5372	15
5373	18
5374	9
5375	16
5376	13
5377	11
5378	7
5379	13
5380	12
5381	14
5382	15
5383	6
5384	4
5385	11
5386	12
5387	10
5388	16
5389	14
5390	15
5391	12
5392	12
5393	14
5394	7
5395	14
5396	12
5397	18
5398	13
5399	11
5400	8
5401	13
5402	12
5403	8
5404	4
5405	14
5406	12
5407	14
5408	17
5409	11
5410	6
5411	17
5412	10
5413	9
5414	15
5415	10
5416	7
5417	12
5418	11
5419	14
5420	12
5421	12
5422	15
5423	8
5424	12
5425	21
5426	14
5427	10
5428	16
5429	16
5430	14
5431	8
5432	5
5433	9
5434	11
5435	12
5436	10
5437	14
5438	13
5439	5
5440	14
5441	17
5442	8
5443	9
5444	14
5445	9
5446	8
5447	11
5448	7
5449	19
5450	15
5451	12
5452	7
5453	19
5454	14
5455	11
5456	11
5457	14
5458	7
5459	19
5460	21
5461	14
5462	12
5463	12
5464	9
5465	8
5466	15
5467	11
5468	2
5469	12
5470	19
5471	12
5472	14
5473	13
5474	14
5475	11
5476	16
5477	13
5478	15
5479	21
5480	23
5481	8
5482	11
5483	12
5484	11
5485	9
5486	18
5487	13
5488	13
5489	13
5490	14
5491	14
5492	13
5493	9
5494	13
5495	8
5496	15
5497	18
5498	11
5499	8
5500	9
5501	16
5502	11
5503	9
5504	11
5505	9
5506	13
5507	13
5508	9
5509	16
5510	8
5511	5
5512	9
5513	17
5514	13
5515	11
5516	11
5517	8
5518	12
5519	11
5520	9
5521	15
5522	12
5523	12
5524	13
5525	21
5526	15
5527	11
5528	4
5529	21
5530	9
5531	9
5532	13
5533	12
5534	18
5535	13
5536	13
5537	11
5538	12
5539	20
5540	6
5541	10
5542	18
5543	13
5544	13
5545	7
5546	12
5547	7
5548	11
5549	11
5550	12
5551	13
5552	17
5553	9
5554	17
5555	9
5556	9
5557	6
5558	8
5559	9
5560	14
5561	15
5562	9
5563	15
5564	17
5565	12
5566	11
5567	11
5568	15
5569	10
5570	11
5571	13
5572	10
5573	12
5574	9
5575	17
5576	11
5577	15
5578	6
5579	8
5580	8
5581	8
5582	13
5583	9
5584	12
5585	8
5586	9
5587	7
5588	9
5589	10
5590	12
5591	9
5592	4
5593	19
5594	11
5595	12
5596	16
5597	15
5598	5
5599	12
5600	9
5601	11
5602	15
5603	12
5604	14
5605	11
5606	9
5607	13
5608	17
5609	15
5610	10
5611	7
5612	9
5613	11
5614	13
5615	10
5616	10
5617	9
5618	11
5619	6
5620	16
5621	14
5622	11
5623	16
5624	9
5625	14
5626	7
5627	9
5628	12
5629	14
5630	10
5631	9
5632	17
5633	14
5634	9
5635	13
5636	22
5637	11
5638	18
5639	12
5640	9
5641	5
5642	7
5643	13
5644	5
5645	11
5646	9
5647	15
5648	10
5649	10
5650	11
5651	8
5652	11
5653	11
5654	16
5655	14
5656	14
5657	10
5658	9
5659	13
5660	17
5661	12
5662	9
5663	13
5664	12
5665	10
5666	9
5667	12
5668	11
5669	18
5670	18
5671	19
5672	11
5673	5
5674	14
5675	18
5676	6
5677	8
5678	18
5679	13
5680	10
5681	14
5682	13
5683	10
5684	15
5685	13
5686	9
5687	14
5688	4
5689	5
5690	11
5691	10
5692	19
5693	18
5694	15
5695	12
5696	10
5697	12
5698	8
5699	14
5700	8
5701	13
5702	9
5703	8
5704	11
5705	20
5706	12
5707	7
5708	9
5709	14
5710	13
5711	8
5712	10
5713	12
5714	14
5715	9
5716	16
5717	10
5718	26
5719	12
5720	6
5721	19
5722	17
5723	8
5724	10
5725	11
5726	9
5727	13
5728	13
5729	7
5730	9
5731	10
5732	10
5733	12
5734	16
5735	15
5736	12
5737	11
5738	10
5739	8
5740	15
5741	18
5742	14
5743	16
5744	12
5745	13
5746	9
5747	10
5748	9
5749	9
5750	13
5751	9
5752	8
5753	11
5754	11
5755	9
5756	8
5757	7
5758	10
5759	11
5760	19
5761	10
5762	7
5763	16
5764	8
5765	10
5766	16
5767	9
5768	12
5769	12
5770	11
5771	9
5772	12
5773	17
5774	8
5775	13
5776	9
5777	8
5778	12
5779	12
5780	10
5781	17
5782	10
5783	14
5784	15
5785	13
5786	10
5787	10
5788	11
5789	9
5790	15
5791	11
5792	19
5793	12
5794	18
5795	9
5796	11
5797	8
5798	10
5799	13
5800	10
5801	15
5802	5
5803	18
5804	19
5805	11
5806	12
5807	8
5808	17
5809	11
5810	10
5811	11
5812	9
5813	13
5814	12
5815	19
5816	12
5817	3
5818	16
5819	7
5820	12
5821	8
5822	8
5823	12
5824	9
5825	13
5826	10
5827	9
5828	13
5829	12
5830	10
5831	8
5832	10
5833	15
5834	12
5835	12
5836	8
5837	9
5838	16
5839	11
5840	8
5841	9
5842	15
5843	9
5844	10
5845	10
5846	8
5847	14
5848	13
5849	17
5850	13
5851	12
5852	16
5853	18
5854	11
5855	13
5856	12
5857	21
5858	12
5859	17
5860	12
5861	14
5862	14
5863	11
5864	14
5865	10
5866	15
5867	14
5868	10
5869	13
5870	17
5871	13
5872	15
5873	16
5874	21
5875	17
5876	14
5877	7
5878	15
5879	8
5880	16
5881	14
5882	14
5883	11
5884	12
5885	13
5886	11
5887	10
5888	8
5889	16
5890	17
5891	14
5892	11
5893	13
5894	14
5895	10
5896	15
5897	18
5898	18
5899	15
5900	15
5901	11
5902	10
5903	15
5904	15
5905	10
5906	12
5907	15
5908	17
5909	10
5910	9
5911	16
5912	12
5913	9
5914	12
5915	8
5916	15
5917	16
5918	10
5919	21
5920	11
5921	7
5922	13
5923	11
5924	12
5925	13
5926	19
5927	16
5928	11
5929	11
5930	13
5931	21
5932	23
5933	17
5934	7
5935	13
5936	21
5937	12
5938	16
5939	18
5940	18
5941	11
5942	13
5943	10
5944	11
5945	17
5946	18
5947	17
5948	16
5949	17
5950	14
5951	8
5952	16
5953	11
5954	11
5955	14
5956	15
5957	17
5958	16
5959	17
5960	16
5961	19
5962	14
5963	22
5964	17
5965	11
5966	21
5967	17
5968	20
5969	18
5970	21
5971	17
5972	22
5973	15
5974	22
5975	13
5976	14
5977	5
5978	16
5979	19
5980	15
5981	21
5982	19
5983	13
5984	21
5985	21
5986	13
5987	18
5988	22
5989	16
5990	14
5991	13
5992	19
5993	15
5994	11
5995	7
5996	19
5997	20
5998	14
5999	15
6000	12
6001	13
6002	18
6003	14
6004	12
6005	15
6006	15
6007	11
6008	17
6009	15
6010	11
6011	11
6012	18
6013	15
6014	17
6015	15
6016	13
6017	9
6018	9
6019	12
6020	14
6021	11
6022	11
6023	5
6024	5
6025	20
6026	11
6027	10
6028	12
6029	9
6030	12
6031	7
6032	16
6033	9
6034	13
6035	12
6036	12
6037	4
6038	9
6039	7
6040	13
6041	9
6042	8
6043	9
6044	11
6045	5
6046	12
6047	6
6048	11
6049	10
6050	9
6051	10
6052	9
6053	12
6054	10
6055	9
6056	8
6057	8
6058	9
6059	9
6060	12
6061	8
6062	6
6063	5
6064	12
6065	10
6066	6
6067	13
6068	10
6069	4
6070	12
6071	8
6072	11
6073	6
6074	12
6075	12
6076	13
6077	14
6078	12
6079	5
6080	3
6081	9
6082	11
6083	8
6084	4
6085	11
6086	8
6087	6
6088	7
6089	12
6090	4
6091	10
6092	7
6093	4
6094	7
6095	6
6096	2
6097	10
6098	10
6099	6
6100	10
6101	4
6102	7
6103	10
6104	5
6105	6
6106	7
6107	7
6108	7
6109	5
6110	5
6111	9
6112	7
6113	12
6114	8
6115	5
6116	12
6117	9
6118	6
6119	9
6120	6
6121	8
6122	4
6123	4
6124	8
6125	7
6126	9
6127	7
6128	5
6129	3
6130	11
6131	6
6132	5
6133	8
6134	9
6135	4
6136	9
6137	8
6138	9
6139	6
6140	8
6141	9
6142	10
6143	4
6144	8
6145	7
6146	6
6147	8
6148	2
6149	9
6150	10
6151	6
6152	4
6153	3
6154	9
6155	7
6156	4
6157	7
6158	5
6159	6
6160	3
6161	3
6162	6
6163	7
6164	3
6165	6
6166	5
6167	7
6168	4
6169	10
6170	4
6171	7
6172	7
6173	7
6174	4
6175	5
6176	7
6177	2
6178	4
6179	5
6180	5
6181	7
6182	4
6183	8
6184	4
6185	4
6186	3
6187	9
6188	7
6189	5
6190	3
6191	7
6192	5
6193	8
6194	6
6195	8
6196	6
6197	7
6198	4
6199	6
6200	2
6201	5
6202	4
6203	6
6204	8
6205	5
6206	5
6207	3
6208	4
6209	5
6210	2
6211	4
6212	3
6213	2
6214	3
6215	11
6216	7
6217	6
6218	1
6219	7
6220	4
6221	2
6222	5
6223	5
6224	3
6225	9
6226	8
6227	2
6228	3
6229	5
6230	1
6231	6
6232	2
6233	6
6234	7
6235	3
6236	4
6237	2
6238	4
6239	1
6240	5
6241	4
6242	4
6243	5
6244	2
6245	4
6246	4
6247	5
6248	2
6249	2
6250	5
6251	1
6252	2
6253	4
6254	7
6255	3
6256	1
6257	1
6258	1
6259	3
6260	0
6261	1
6262	8
6263	5
6264	4
6265	6
6266	5
6267	5
6268	5
6269	2
6270	6
6271	2
6272	0
6273	4
6274	1
6275	4
6276	0
6277	0
6278	3
6279	0
6280	4
6281	2
6282	2
6283	2
6284	2
6285	6
6286	5
6287	1
6288	0
6289	1
6290	3
6291	2
6292	0
6293	1
6294	3
6295	2
6296	1
6297	3
6298	1
6299	1
6300	2
6301	1
6302	2
6303	2
6304	2
6305	0
6306	2
6307	3
6308	2
6309	4
6310	2
6311	2
6312	1
6313	2
6314	3
6315	1
6316	2
6317	1
6318	3
6319	3
6320	1
6321	3
6322	1
6323	4
6324	2
6325	3
6326	4
6327	1
6328	2
6329	5
6330	2
6331	2
6332	2
6333	0
6334	3
6335	1
6336	2
6337	1
6338	3
6339	5
6340	2
6341	4
6342	2
6343	1
6344	0
6345	2
6346	2
6347	5
6348	3
6349	1
6350	2
6351	2
6352	2
6353	2
6354	4
6355	3
6356	1
6357	1
6358	3
6359	3
6360	1
6361	1
6362	3
6363	3
6364	1
6365	2
6366	1
6367	1
6368	2
6369	2
6370	3
6371	3
6372	0
6373	2
6374	1
6375	1
6376	1
6377	0
6378	2
6379	1
6380	3
6381	0
6382	0
6383	2
6384	3
6385	0
6386	1
6387	1
6388	0
6389	1
6390	1
6391	2
6392	4
6393	1
6394	2
6395	2
6396	2
6397	5
6398	3
6399	3
6400	2
6401	1
6402	3
6403	1
6404	0
6405	3
6406	0
6407	3
6408	6
6409	2
6410	0
6411	3
6412	2
6413	0
6414	3
6415	2
6416	2
6417	1
6418	2
6419	4
6420	1
6421	1
6422	4
6423	1
6424	2
6425	3
6426	2
6427	1
6428	1
6429	0
6430	0
6431	2
6432	3
6433	1
6434	3
6435	2
6436	0
6437	1
6438	2
6439	0
6440	1
6441	3
6442	2
6443	4
6444	0
6445	5
6446	1
6447	2
6448	1
6449	4
6450	3
6451	2
6452	1
6453	0
6454	1
6455	1
6456	1
6457	3
6458	3
6459	0
6460	2
6461	0
6462	0
6463	4
6464	0
6465	4
6466	2
6467	0
6468	1
6469	1
6470	3
6471	1
6472	1
6473	1
6474	2
6475	3
6476	1
6477	3
6478	2
6479	2
6480	0
6481	3
6482	4
6483	1
6484	3
6485	1
6486	0
6487	3
6488	1
6489	4
6490	0
6491	2
6492	3
6493	3
6494	2
6495	0
6496	0
6497	2
6498	0
6499	1
6500	4
6501	3
6502	2
6503	0
6504	0
6505	1
6506	3
6507	1
6508	0
6509	3
6510	1
6511	3
6512	1
6513	0
6514	3
6515	0
6516	0
6517	0
6518	1
6519	1
6520	2
6521	1
6522	1
6523	2
6524	2
6525	2
6526	2
6527	1
6528	1
6529	1
6530	2
6531	4
6532	4
6533	1
6534	1
6535	3
6536	1
6537	0
6538	1
6539	0
6540	0
6541	1
6542	1
6543	0
6544	3
6545	2
6546	1
6547	7
6548	7
6549	6
6550	6
6551	11
6552	27
6553	34
6554	79
6555	84
6556	154
6557	218
6558	254
6559	352
6560	377
6561	366
6562	324
6563	245
6564	132
6565	98
6566	50
6567	17
6568	12
6569	8
6570	6
6571	2
6572	1
6573	0
6574	0
6575	0
6576	1
6577	3
6578	1
6579	0
6580	2
6581	2
6582	2
6583	1
6584	0
6585	0
6586	0
6587	0
6588	1
6589	0
6590	0
6591	0
6592	0
6593	0
6594	2
6595	0
6596	2
6597	0
6598	1
6599	1
6600	0
6601	0
6602	0
6603	0
6604	0
6605	0
6606	0
6607	0
6608	0
6609	1
6610	2
6611	0
6612	0
6613	0
6614	0
6615	0
6616	0
6617	0
6618	1
6619	1
6620	0
6621	0
6622	0
6623	1
6624	0
6625	0
6626	0
6627	1
6628	0
6629	0
6630	0
6631	0
6632	0
6633	1
6634	0
6635	0
6636	0
6637	0
6638	0
6639	0
6640	0
6641	1
6642	0
6643	0
6644	0
6645	0
6646	0
6647	0
6648	2
6649	2
6650	0
6651	1
6652	0
6653	0
6654	0
6655	1
6656	0
6657	0
6658	0
6659	0
6660	0
6661	1
6662	0
6663	0
6664	0
6665	0
6666	0
6667	0
6668	0
6669	0
6670	0
6671	0
6672	1
6673	0
6674	0
6675	0
6676	0
6677	1
6678	0
6679	0
6680	0
6681	0
6682	0
6683	1
6684	0
6685	0
6686	0
6687	1
6688	0
6689	0
6690	0
6691	0
6692	0
6693	1
6694	1
6695	0
6696	0
6697	0
6698	1
6699	0
6700	0
6701	0
6702	0
6703	1
6704	0
6705	0
6706	0
6707	0
6708	0
6709	0
6710	0
6711	1
6712	0
6713	0
6714	0
6715	0
6716	0
6717	0
6718	0
6719	0
6720	0
6721	1
6722	0
6723	1
6724	0
6725	0
6726	0
6727	1
6728	0
6729	0
6730	1
6731	1
6732	0
6733	0
6734	0
6735	0
6736	0
6737	0
6738	0
6739	1
6740	0
6741	1
6742	1
6743	0
6744	0
6745	0
6746	1
6747	0
6748	0
6749	0
6750	0
6751	0
6752	0
6753	0
6754	0
6755	0
6756	0
6757	0
6758	0
6759	0
6760	0
6761	0
6762	0
6763	0
6764	0
6765	0
6766	0
6767	0
6768	0
6769	0
6770	0
6771	0
6772	0
6773	0
6774	0
6775	0
6776	0
6777	0
6778	0
6779	0
6780	0
6781	0
6782	0
6783	0
6784	0
6785	0
6786	0
6787	0
6788	0
6789	0
6790	0
6791	0
6792	0
6793	1
6794	0
6795	1
6796	0
6797	0
6798	1
6799	0
6800	0
6801	0
6802	0
6803	0
6804	0
6805	0
6806	0
6807	0
6808	1
6809	0
6810	0
6811	0
6812	0
6813	0
6814	0
6815	0
6816	0
6817	0
6818	0
6819	1
6820	0
6821	1
6822	0
6823	0
6824	0
6825	0
6826	0
6827	1
6828	0
6829	0
6830	0
6831	0
6832	0
6833	0
6834	0
6835	2
6836	0
6837	1
6838	2
6839	0
6840	4
6841	2
6842	0
6843	0
6844	2
6845	2
6846	1
6847	1
6848	0
6849	0
6850	1
6851	0
6852	1
6853	0
6854	0
6855	0
6856	1
6857	0
6858	0
6859	0
6860	1
6861	0
6862	0
6863	0
6864	1
6865	0
6866	0
6867	0
6868	0
6869	0
6870	1
6871	0
6872	0
6873	0
6874	0
6875	1
6876	0
6877	0
6878	0
6879	0
6880	0
6881	0
6882	0
6883	0
6884	0
6885	0
6886	0
6887	0
6888	0
6889	0
6890	0
6891	0
6892	0
6893	0
6894	0
6895	0
6896	0
6897	0
6898	0
6899	0
6900	0
6901	0
6902	0
6903	0
6904	0
6905	0
6906	0
6907	1
6908	0
6909	0
6910	0
6911	0
6912	1
6913	0
6914	0
6915	1
6916	0
6917	0
6918	0
6919	1
6920	0
6921	0
6922	0
6923	0
6924	0
6925	0
6926	1
6927	0
6928	0
6929	0
6930	0
6931	0
6932	0
6933	0
6934	0
6935	0
6936	0
6937	0
6938	0
6939	0
6940	1
6941	0
6942	0
6943	0
6944	0
6945	0
6946	1
6947	0
6948	0
6949	0
6950	0
6951	0
6952	0
6953	0
6954	0
6955	0
6956	0
6957	0
6958	0
6959	0
6960	0
6961	0
6962	1
6963	0
6964	0
6965	0
6966	2
6967	3
6968	2
6969	0
6970	1
6971	0
6972	4
6973	1
6974	0
6975	0
6976	0
6977	0
6978	0
6979	1
6980	0
6981	0
6982	0
6983	0
6984	0
6985	0
6986	0
6987	0
6988	0
6989	0
6990	0
6991	0
6992	0
6993	0
6994	0
6995	0
6996	0
6997	0
6998	0
6999	0
7000	0
7001	0
7002	1
7003	0
7004	0
7005	0
7006	0
7007	0
7008	0
7009	0
7010	0
7011	1
7012	0
7013	0
7014	0
7015	0
7016	0
7017	0
7018	1
7019	0
7020	0
7021	2
7022	0
7023	0
7024	1
7025	0
7026	0
7027	0
7028	0
7029	0
7030	1
7031	0
7032	0
7033	0
7034	0
7035	0
7036	0
7037	0
7038	0
7039	0
7040	0
7041	0
7042	0
7043	0
7044	0
7045	2
7046	0
7047	0
7048	0
7049	0
7050	0
7051	0
7052	0
7053	0
7054	0
7055	0
7056	0
7057	0
7058	0
7059	0
7060	0
7061	1
7062	0
7063	1
7064	0
7065	0
7066	0
7067	0
7068	0
7069	0
7070	0
7071	0
7072	0
7073	0
7074	0
7075	0
7076	0
7077	0
7078	0
7079	0
7080	0
7081	0
7082	0
7083	0
7084	0
7085	0
7086	0
7087	0
7088	0
7089	0
7090	0
7091	0
7092	0
7093	0
7094	0
7095	0
7096	0
7097	0
7098	0
7099	0
7100	0
7101	0
7102	0
7103	0
7104	0
7105	0
7106	0
7107	0
7108	0
7109	0
7110	0
7111	0
7112	1
7113	0
7114	0
7115	0
7116	1
7117	0
7118	0
7119	0
7120	0
7121	1
7122	0
7123	0
7124	0
7125	0
7126	0
7127	0
7128	0
7129	0
7130	0
7131	0
7132	0
7133	0
7134	0
7135	0
7136	0
7137	0
7138	0
7139	0
7140	0
7141	0
7142	0
7143	0
7144	0
7145	0
7146	0
7147	0
7148	0
7149	1
7150	0
7151	0
7152	0
7153	0
7154	0
7155	0
7156	0
7157	0
7158	0
7159	0
7160	0
7161	0
7162	0
7163	0
7164	0
7165	0
7166	0
7167	1
7168	0
7169	0
7170	0
7171	0
7172	0
7173	0
7174	0
7175	0
7176	0
7177	0
7178	0
7179	0
7180	0
7181	0
7182	0
7183	0
7184	0
7185	0
7186	0
7187	0
7188	0
7189	0
7190	0
7191	0
7192	0
7193	0
7194	0
7195	0
7196	0
7197	0
7198	0
7199	0
7200	0
7201	0
7202	0
7203	0
7204	0
7205	0
7206	0
7207	0
7208	0
7209	0
7210	0
7211	1
7212	0
7213	0
7214	1
7215	0
7216	0
7217	0
7218	0
7219	0
7220	0
7221	0
7222	0
7223	0
7224	0
7225	0
7226	0
7227	0
7228	0
7229	0
7230	0
7231	0
7232	0
7233	0
7234	0
7235	0
7236	0
7237	0
7238	0
7239	0
7240	0
7241	0
7242	0
7243	0
7244	0
7245	0
7246	0
7247	0
7248	1
7249	0
7250	0
7251	1
7252	0
7253	0
7254	0
7255	0
7256	0
7257	0
7258	0
7259	0
7260	0
7261	0
7262	0
7263	0
7264	0
7265	0
7266	0
7267	1
7268	1
7269	0
7270	0
7271	0
7272	0
7273	0
7274	0
7275	0
7276	0
7277	0
7278	0
7279	0
7280	0
7281	0
7282	0
7283	0
7284	0
7285	0
7286	1
7287	0
7288	0
7289	0
7290	0
7291	0
7292	0
7293	0
7294	0
7295	0
7296	0
7297	0
7298	0
7299	0
7300	0
7301	0
7302	1
7303	1
7304	0
7305	0
7306	0
7307	0
7308	1
7309	0
7310	0
7311	0
7312	0
7313	0
7314	1
7315	0
7316	0
7317	0
7318	0
7319	0
7320	0
7321	0
7322	0
7323	0
7324	0
7325	0
7326	0
7327	0
7328	0
7329	0
7330	0
7331	0
7332	0
7333	0
7334	0
7335	0
7336	0
7337	0
7338	0
7339	0
7340	0
7341	0
7342	0
7343	0
7344	0
7345	0
7346	0
7347	1
7348	0
7349	0
7350	0
7351	1
7352	0
7353	0
7354	0
7355	0
7356	1
7357	0
7358	0
7359	0
7360	0
7361	0
7362	0
7363	0
7364	0
7365	0
7366	0
7367	0
7368	1
7369	0
7370	0
7371	0
7372	1
7373	0
7374	0
7375	0
7376	0
7377	0
7378	0
7379	1
7380	0
7381	0
7382	0
7383	0
7384	1
7385	0
7386	0
7387	0
7388	0
7389	0
7390	0
7391	0
7392	0
7393	0
7394	0
7395	0
7396	1
7397	0
7398	0
7399	0
7400	0
7401	0
7402	1
7403	0
7404	0
7405	0
7406	0
7407	0
7408	0
7409	0
7410	0
7411	0
7412	0
7413	0
7414	0
7415	0
7416	0
7417	0
7418	0
7419	1
7420	0
7421	0
7422	0
7423	0
7424	0
7425	0
7426	0
7427	0
7428	0
7429	0
7430	0
7431	0
7432	0
7433	0
7434	0
7435	0
7436	1
7437	0
7438	0
7439	0
7440	0
7441	0
7442	0
7443	1
7444	0
7445	0
7446	0
7447	0
7448	0
7449	0
7450	0
7451	0
7452	0
7453	0
7454	0
7455	0
7456	0
7457	0
7458	0
7459	0
7460	0
7461	0
7462	0
7463	0
7464	0
7465	0
7466	0
7467	0
7468	0
7469	0
7470	0
7471	0
7472	0
7473	0
7474	0
7475	0
7476	0
7477	0
7478	0
7479	0
7480	0
7481	0
7482	0
7483	0
7484	0
7485	0
7486	0
7487	0
7488	0
7489	0
7490	0
7491	0
7492	0
7493	0
7494	0
7495	0
7496	0
7497	0
7498	0
7499	0
7500	0
7501	0
7502	0
7503	0
7504	0
7505	0
7506	0
7507	0
7508	0
7509	0
7510	0
7511	0
7512	0
7513	1
7514	0
7515	0
7516	0
7517	0
7518	0
7519	0
7520	0
7521	0
7522	0
7523	0
7524	0
7525	0
7526	0
7527	0
7528	0
7529	0
7530	0
7531	0
7532	0
7533	0
7534	0
7535	0
7536	0
7537	0
7538	0
7539	0
7540	0
7541	0
7542	0
7543	0
7544	0
7545	0
7546	0
7547	0
7548	0
7549	0
7550	0
7551	0
7552	0
7553	0
7554	0
7555	0
7556	0
7557	0
7558	0
7559	0
7560	0
7561	0
7562	0
7563	0
7564	0
7565	0
7566	0
7567	0
7568	0
7569	0
7570	0
7571	0
7572	0
7573	0
7574	0
7575	0
7576	0
7577	0
7578	0
7579	0
7580	0
7581	0
7582	0
7583	0
7584	0
7585	1
7586	0
7587	0
7588	0
7589	1
7590	0
7591	0
7592	0
7593	0
7594	0
7595	0
7596	0
7597	0
7598	0
7599	0
7600	0
7601	0
7602	0
7603	0
7604	0
7605	0
7606	0
7607	0
7608	0
7609	1
7610	0
7611	0
7612	0
7613	0
7614	0
7615	0
7616	0
7617	0
7618	0
7619	0
7620	0
7621	0
7622	0
7623	0
7624	0
7625	0
7626	0
7627	0
7628	0
7629	0
7630	0
7631	0
7632	0
7633	0
7634	0
7635	0
7636	0
7637	0
7638	0
7639	0
7640	0
7641	0
7642	0
7643	1
7644	0
7645	0
7646	0
7647	0
7648	0
7649	0
7650	0
7651	0
7652	0
7653	0
7654	0
7655	0
7656	0
7657	0
7658	0
7659	0
7660	0
7661	0
7662	0
7663	0
7664	0
7665	0
7666	0
7667	0
7668	0
7669	0
7670	0
7671	0
7672	0
7673	0
7674	0
7675	0
7676	0
7677	0
7678	0
7679	1
7680	0
7681	0
7682	0
7683	0
7684	0
7685	1
7686	1
7687	0
7688	0
7689	0
7690	1
7691	0
7692	0
7693	0
7694	0
7695	0
7696	0
7697	0
7698	0
7699	0
7700	0
7701	1
7702	0
7703	0
7704	0
7705	0
7706	0
7707	0
7708	0
7709	0
7710	0
7711	0
7712	0
7713	0
7714	0
7715	0
7716	0
7717	0
7718	0
7719	1
7720	0
7721	0
7722	0
7723	0
7724	0
7725	0
7726	0
7727	0
7728	0
7729	0
7730	0
7731	0
7732	0
7733	0
7734	0
7735	0
7736	0
7737	0
7738	0
7739	0
7740	0
7741	0
7742	0
7743	0
7744	0
7745	0
7746	0
7747	0
7748	0
7749	0
7750	0
7751	0
7752	0
7753	0
7754	0
7755	0
7756	0
7757	0
7758	0
7759	0
7760	0
7761	0
7762	0
7763	0
7764	0
7765	0
7766	0
7767	0
7768	1
7769	0
7770	0
7771	0
7772	1
7773	0
7774	0
7775	0
7776	0
7777	0
7778	0
7779	0
7780	0
7781	0
7782	0
7783	0
7784	0
7785	0
7786	0
7787	0
7788	0
7789	0
7790	0
7791	0
7792	1
7793	0
7794	0
7795	0
7796	0
7797	0
7798	0
7799	0
7800	0
7801	0
7802	0
7803	0
7804	0
7805	0
7806	0
7807	0
7808	0
7809	0
7810	0
7811	0
7812	0
7813	0
7814	2
7815	0
7816	0
7817	0
7818	0
7819	0
7820	0
7821	0
7822	0
7823	0
7824	0
7825	0
7826	0
7827	0
7828	0
7829	0
7830	0
7831	0
7832	0
7833	1
7834	0
7835	0
7836	0
7837	1
7838	0
7839	0
7840	1
7841	0
7842	0
7843	1
7844	0
7845	0
7846	0
7847	0
7848	0
7849	0
7850	0
7851	0
7852	0
7853	0
7854	0
7855	0
7856	0
7857	0
7858	0
7859	0
7860	1
7861	0
7862	0
7863	0
7864	0
7865	0
7866	0
7867	0
7868	0
7869	0
7870	0
7871	0
7872	0
7873	0
7874	0
7875	0
7876	0
7877	0
7878	0
7879	0
7880	0
7881	1
7882	0
7883	0
7884	0
7885	0
7886	0
7887	0
7888	0
7889	0
7890	0
7891	0
7892	1
7893	0
7894	0
7895	0
7896	0
7897	0
7898	0
7899	0
7900	0
7901	0
7902	0
7903	0
7904	0
7905	0
7906	0
7907	0
7908	0
7909	0
7910	0
7911	0
7912	2
7913	0
7914	0
7915	0
7916	0
7917	0
7918	0
7919	0
7920	0
7921	0
7922	0
7923	0
7924	0
7925	0
7926	0
7927	0
7928	0
7929	0
7930	0
7931	0
7932	0
7933	0
7934	0
7935	0
7936	0
7937	0
7938	0
7939	0
7940	0
7941	0
7942	0
7943	0
7944	1
7945	0
7946	0
7947	0
7948	0
7949	0
7950	0
7951	0
7952	0
7953	0
7954	0
7955	0
7956	0
7957	0
7958	1
7959	0
7960	0
7961	0
7962	0
7963	0
7964	0
7965	0
7966	0
7967	0
7968	0
7969	0
7970	0
7971	0
7972	0
7973	0
7974	0
7975	0
7976	0
7977	0
7978	0
7979	0
7980	0
7981	0
7982	0
7983	1
7984	0
7985	0
7986	0
7987	0
7988	0
7989	0
7990	0
7991	0
7992	0
7993	0
7994	0
7995	0
7996	0
7997	0
7998	0
7999	0
8000	0
8001	0
8002	0
8003	0
8004	0
8005	0
8006	0
8007	0
8008	0
8009	0
8010	1
8011	0
8012	0
8013	0
8014	0
8015	0
8016	0
8017	0
8018	0
8019	0
8020	0
8021	0
8022	0
8023	0
8024	0
8025	0
8026	0
8027	0
8028	1
8029	0
8030	0
8031	0
8032	0
8033	0
8034	0
8035	0
8036	0
8037	0
8038	0
8039	0
8040	0
8041	0
8042	0
8043	0
8044	0
8045	1
8046	1
8047	0
8048	0
8049	0
8050	0
8051	0
8052	0
8053	0
8054	0
8055	0
8056	0
8057	0
8058	0
8059	0
8060	0
8061	0
8062	0
8063	0
8064	0
8065	0
8066	0
8067	0
8068	0
8069	0
8070	0
8071	0
8072	0
8073	0
8074	0
8075	0
8076	0
8077	0
8078	0
8079	0
8080	0
8081	0
8082	0
8083	0
8084	0
8085	0
8086	0
8087	0
8088	0
8089	0
8090	0
8091	0
8092	0
8093	0
8094	0
8095	0
8096	0
8097	0
8098	0
8099	0
8100	0
8101	0
8102	0
8103	0
8104	0
8105	0
8106	0
8107	0
8108	0
8109	0
8110	0
8111	0
8112	0
8113	0
8114	0
8115	0
8116	0
8117	0
8118	0
8119	0
8120	0
8121	0
8122	0
8123	0
8124	0
8125	0
8126	0
8127	0
8128	0
8129	0
8130	0
8131	0
8132	0
8133	0
8134	0
8135	0
8136	0
8137	0
8138	0
8139	0
8140	0
8141	0
8142	0
8143	0
8144	0
8145	0
8146	0
8147	0
8148	0
8149	0
8150	0
8151	0
8152	0
8153	0
8154	0
8155	0
8156	0
8157	0
8158	0
8159	0
8160	0
8161	0
8162	0
8163	0
8164	0
8165	0
8166	0
8167	0
8168	0
8169	0
8170	0
8171	0
8172	0
8173	0
8174	0
8175	0
8176	0
8177	0
8178	0
8179	0
8180	0
8181	0
8182	0
8183	0
8184	0
8185	0
8186	0
8187	0
8188	0
8189	0
8190	0
8191	0
