0	0
1	0
2	0
3	0
4	0
5	0
6	0
7	0
8	0
9	0
10	0
11	0
12	0
13	0
14	0
15	0
16	0
17	0
18	0
19	0
20	0
21	0
22	0
23	0
24	0
25	0
26	0
27	0
28	0
29	0
30	0
31	0
32	0
33	0
34	0
35	0
36	0
37	0
38	0
39	0
40	0
41	0
42	0
43	0
44	0
45	0
46	0
47	0
48	0
49	0
50	0
51	0
52	0
53	0
54	0
55	0
56	0
57	0
58	0
59	0
60	0
61	0
62	0
63	0
64	0
65	0
66	0
67	0
68	0
69	0
70	0
71	0
72	0
73	0
74	0
75	0
76	0
77	0
78	0
79	0
80	0
81	0
82	0
83	0
84	0
85	0
86	0
87	0
88	0
89	0
90	0
91	0
92	0
93	0
94	0
95	0
96	0
97	0
98	0
99	0
100	0
101	0
102	0
103	0
104	0
105	0
106	0
107	0
108	0
109	0
110	0
111	0
112	0
113	0
114	0
115	0
116	0
117	0
118	69
119	284
120	503
121	586
122	616
123	560
124	604
125	586
126	608
127	633
128	562
129	568
130	591
131	582
132	521
133	583
134	593
135	555
136	574
137	565
138	609
139	561
140	580
141	573
142	552
143	549
144	577
145	561
146	550
147	570
148	568
149	498
150	536
151	538
152	564
153	545
154	529
155	558
156	574
157	552
158	499
159	508
160	539
161	546
162	508
163	527
164	529
165	511
166	457
167	564
168	530
169	494
170	488
171	486
172	514
173	512
174	504
175	478
176	522
177	500
178	501
179	477
180	513
181	479
182	529
183	533
184	486
185	545
186	497
187	466
188	525
189	482
190	501
191	477
192	464
193	482
194	502
195	470
196	466
197	480
198	476
199	488
200	488
201	473
202	486
203	482
204	493
205	432
206	481
207	531
208	500
209	524
210	492
211	466
212	476
213	479
214	527
215	480
216	509
217	457
218	516
219	472
220	490
221	473
222	448
223	481
224	478
225	458
226	499
227	455
228	475
229	460
230	430
231	482
232	476
233	480
234	494
235	489
236	487
237	478
238	450
239	455
240	470
241	446
242	479
243	436
244	513
245	456
246	439
247	443
248	491
249	443
250	453
251	454
252	487
253	461
254	435
255	444
256	504
257	462
258	490
259	473
260	476
261	480
262	447
263	495
264	488
265	477
266	443
267	478
268	478
269	457
270	467
271	460
272	438
273	499
274	461
275	457
276	447
277	458
278	481
279	463
280	454
281	443
282	470
283	445
284	511
285	436
286	446
287	543
288	511
289	453
290	454
291	498
292	490
293	480
294	485
295	456
296	474
297	489
298	442
299	430
300	478
301	476
302	489
303	477
304	470
305	476
306	463
307	491
308	451
309	480
310	450
311	496
312	467
313	473
314	461
315	461
316	465
317	488
318	477
319	447
320	476
321	450
322	446
323	460
324	442
325	465
326	422
327	458
328	478
329	473
330	499
331	452
332	444
333	475
334	450
335	483
336	446
337	486
338	443
339	450
340	484
341	460
342	471
343	445
344	457
345	490
346	479
347	459
348	455
349	445
350	480
351	474
352	436
353	453
354	469
355	481
356	452
357	447
358	488
359	470
360	436
361	507
362	467
363	454
364	454
365	497
366	531
367	480
368	518
369	451
370	481
371	477
372	461
373	469
374	536
375	510
376	507
377	484
378	513
379	540
380	521
381	591
382	758
383	914
384	1078
385	966
386	802
387	564
388	485
389	523
390	509
391	478
392	474
393	457
394	465
395	469
396	423
397	474
398	484
399	499
400	505
401	486
402	503
403	503
404	496
405	506
406	460
407	467
408	497
409	435
410	478
411	510
412	510
413	509
414	479
415	479
416	494
417	533
418	551
419	540
420	514
421	557
422	524
423	533
424	487
425	447
426	499
427	471
428	497
429	446
430	465
431	463
432	496
433	457
434	458
435	464
436	492
437	516
438	495
439	453
440	491
441	485
442	483
443	446
444	466
445	455
446	439
447	513
448	486
449	486
450	458
451	489
452	441
453	460
454	483
455	493
456	488
457	475
458	487
459	501
460	464
461	485
462	513
463	476
464	468
465	476
466	477
467	508
468	485
469	457
470	486
471	468
472	457
473	443
474	528
475	460
476	472
477	474
478	484
479	469
480	483
481	493
482	472
483	469
484	512
485	475
486	497
487	488
488	490
489	506
490	504
491	493
492	489
493	507
494	467
495	470
496	514
497	520
498	521
499	488
500	492
501	471
502	508
503	499
504	505
505	538
506	516
507	499
508	518
509	507
510	532
511	488
512	519
513	577
514	513
515	522
516	481
517	555
518	510
519	538
520	522
521	545
522	547
523	537
524	524
525	579
526	532
527	546
528	539
529	552
530	567
531	514
532	514
533	541
534	583
535	527
536	512
537	598
538	602
539	541
540	527
541	552
542	546
543	551
544	567
545	593
546	570
547	567
548	600
549	596
550	597
551	608
552	622
553	610
554	641
555	569
556	674
557	615
558	615
559	620
560	620
561	659
562	586
563	647
564	619
565	607
566	619
567	590
568	669
569	588
570	679
571	628
572	614
573	666
574	611
575	616
576	601
577	601
578	679
579	598
580	622
581	589
582	580
583	579
584	582
585	591
586	545
587	581
588	615
589	590
590	540
591	568
592	570
593	600
594	609
595	563
596	561
597	527
598	565
599	573
600	530
601	584
602	523
603	572
604	547
605	566
606	596
607	538
608	544
609	581
610	560
611	554
612	583
613	573
614	608
615	560
616	598
617	570
618	570
619	571
620	599
621	591
622	616
623	561
624	582
625	635
626	593
627	593
628	631
629	614
630	658
631	611
632	679
633	600
634	586
635	621
636	593
637	626
638	572
639	607
640	606
641	612
642	603
643	632
644	515
645	600
646	594
647	597
648	601
649	606
650	591
651	567
652	559
653	577
654	552
655	574
656	559
657	590
658	585
659	563
660	517
661	616
662	564
663	558
664	551
665	545
666	540
667	569
668	565
669	523
670	513
671	590
672	538
673	560
674	497
675	513
676	508
677	580
678	552
679	527
680	559
681	541
682	520
683	516
684	512
685	542
686	490
687	518
688	482
689	501
690	550
691	514
692	534
693	506
694	471
695	510
696	507
697	538
698	523
699	486
700	493
701	511
702	494
703	488
704	501
705	469
706	492
707	476
708	553
709	506
710	484
711	486
712	496
713	509
714	487
715	507
716	520
717	486
718	501
719	534
720	468
721	499
722	438
723	468
724	494
725	480
726	478
727	499
728	461
729	473
730	478
731	511
732	487
733	481
734	462
735	518
736	466
737	479
738	452
739	505
740	497
741	502
742	486
743	496
744	492
745	500
746	504
747	457
748	488
749	505
750	498
751	446
752	481
753	481
754	444
755	477
756	498
757	463
758	479
759	509
760	481
761	460
762	490
763	482
764	479
765	491
766	479
767	426
768	487
769	468
770	478
771	465
772	465
773	497
774	515
775	432
776	490
777	446
778	456
779	484
780	463
781	482
782	474
783	468
784	488
785	503
786	480
787	430
788	444
789	486
790	457
791	484
792	485
793	488
794	448
795	501
796	442
797	471
798	513
799	477
800	447
801	441
802	451
803	490
804	452
805	467
806	470
807	478
808	460
809	494
810	455
811	445
812	466
813	484
814	458
815	474
816	448
817	437
818	481
819	445
820	464
821	507
822	464
823	479
824	457
825	440
826	451
827	463
828	453
829	447
830	467
831	470
832	473
833	454
834	453
835	446
836	451
837	464
838	501
839	533
840	452
841	445
842	442
843	453
844	442
845	496
846	431
847	469
848	441
849	495
850	462
851	449
852	472
853	461
854	494
855	452
856	454
857	465
858	487
859	493
860	443
861	492
862	412
863	469
864	421
865	467
866	438
867	487
868	439
869	472
870	479
871	452
872	451
873	519
874	502
875	475
876	467
877	440
878	477
879	456
880	437
881	468
882	477
883	429
884	472
885	504
886	483
887	477
888	494
889	417
890	483
891	459
892	466
893	476
894	490
895	451
896	467
897	451
898	463
899	451
900	465
901	444
902	475
903	488
904	494
905	436
906	455
907	466
908	467
909	466
910	461
911	468
912	410
913	477
914	453
915	451
916	443
917	456
918	439
919	482
920	424
921	480
922	449
923	476
924	414
925	463
926	475
927	450
928	494
929	487
930	492
931	454
932	474
933	467
934	468
935	466
936	438
937	456
938	421
939	509
940	428
941	452
942	481
943	451
944	446
945	445
946	474
947	434
948	448
949	434
950	465
951	427
952	464
953	427
954	448
955	440
956	406
957	414
958	414
959	419
960	438
961	441
962	438
963	478
964	442
965	436
966	465
967	445
968	421
969	441
970	414
971	421
972	406
973	436
974	394
975	381
976	393
977	415
978	412
979	417
980	426
981	397
982	385
983	415
984	436
985	422
986	426
987	403
988	397
989	385
990	417
991	410
992	429
993	371
994	401
995	440
996	467
997	391
998	446
999	379
1000	394
1001	422
1002	437
1003	430
1004	398
1005	383
1006	367
1007	434
1008	419
1009	424
1010	394
1011	390
1012	397
1013	369
1014	433
1015	387
1016	389
1017	422
1018	378
1019	410
1020	428
1021	413
1022	396
1023	411
1024	431
1025	426
1026	424
1027	403
1028	421
1029	390
1030	404
1031	382
1032	407
1033	420
1034	421
1035	402
1036	432
1037	424
1038	402
1039	389
1040	417
1041	411
1042	382
1043	423
1044	395
1045	416
1046	404
1047	407
1048	425
1049	371
1050	389
1051	413
1052	410
1053	401
1054	436
1055	394
1056	418
1057	394
1058	411
1059	399
1060	399
1061	428
1062	397
1063	413
1064	402
1065	426
1066	369
1067	404
1068	428
1069	393
1070	397
1071	429
1072	427
1073	408
1074	376
1075	441
1076	439
1077	402
1078	391
1079	422
1080	391
1081	402
1082	416
1083	425
1084	400
1085	373
1086	393
1087	381
1088	354
1089	382
1090	391
1091	391
1092	391
1093	414
1094	381
1095	391
1096	406
1097	393
1098	410
1099	376
1100	420
1101	380
1102	431
1103	377
1104	404
1105	416
1106	423
1107	414
1108	380
1109	410
1110	418
1111	402
1112	407
1113	419
1114	399
1115	405
1116	420
1117	394
1118	422
1119	383
1120	380
1121	382
1122	402
1123	423
1124	414
1125	390
1126	399
1127	407
1128	413
1129	384
1130	423
1131	405
1132	415
1133	456
1134	432
1135	420
1136	397
1137	431
1138	429
1139	391
1140	425
1141	431
1142	405
1143	407
1144	422
1145	434
1146	427
1147	408
1148	403
1149	395
1150	386
1151	431
1152	437
1153	411
1154	441
1155	426
1156	400
1157	400
1158	427
1159	414
1160	406
1161	415
1162	424
1163	359
1164	454
1165	437
1166	408
1167	396
1168	393
1169	433
1170	409
1171	442
1172	434
1173	453
1174	430
1175	438
1176	433
1177	379
1178	424
1179	397
1180	418
1181	426
1182	430
1183	433
1184	433
1185	424
1186	433
1187	423
1188	467
1189	436
1190	401
1191	428
1192	456
1193	406
1194	431
1195	395
1196	461
1197	399
1198	433
1199	475
1200	429
1201	473
1202	452
1203	429
1204	454
1205	434
1206	422
1207	429
1208	442
1209	439
1210	423
1211	450
1212	457
1213	489
1214	488
1215	446
1216	418
1217	478
1218	455
1219	469
1220	443
1221	496
1222	457
1223	505
1224	459
1225	436
1226	433
1227	469
1228	457
1229	506
1230	441
1231	488
1232	435
1233	457
1234	440
1235	473
1236	460
1237	468
1238	457
1239	506
1240	489
1241	472
1242	482
1243	483
1244	449
1245	472
1246	497
1247	454
1248	466
1249	464
1250	481
1251	452
1252	495
1253	471
1254	463
1255	487
1256	443
1257	475
1258	496
1259	475
1260	461
1261	468
1262	515
1263	486
1264	500
1265	509
1266	463
1267	496
1268	493
1269	444
1270	520
1271	462
1272	477
1273	442
1274	494
1275	500
1276	448
1277	503
1278	459
1279	507
1280	505
1281	513
1282	485
1283	475
1284	475
1285	509
1286	538
1287	521
1288	488
1289	485
1290	458
1291	485
1292	498
1293	473
1294	483
1295	464
1296	497
1297	437
1298	458
1299	462
1300	478
1301	485
1302	457
1303	415
1304	416
1305	412
1306	440
1307	384
1308	355
1309	372
1310	383
1311	366
1312	369
1313	362
1314	361
1315	350
1316	387
1317	360
1318	358
1319	378
1320	377
1321	370
1322	350
1323	343
1324	352
1325	344
1326	373
1327	335
1328	325
1329	337
1330	350
1331	315
1332	312
1333	328
1334	314
1335	317
1336	360
1337	316
1338	323
1339	327
1340	322
1341	332
1342	332
1343	314
1344	339
1345	353
1346	335
1347	294
1348	296
1349	304
1350	294
1351	310
1352	301
1353	296
1354	312
1355	307
1356	303
1357	304
1358	295
1359	300
1360	313
1361	302
1362	311
1363	304
1364	309
1365	291
1366	281
1367	291
1368	287
1369	291
1370	307
1371	312
1372	274
1373	308
1374	312
1375	316
1376	296
1377	322
1378	301
1379	296
1380	288
1381	354
1382	391
1383	441
1384	568
1385	887
1386	1322
1387	1792
1388	2488
1389	3241
1390	3684
1391	3908
1392	3760
1393	3308
1394	2608
1395	1904
1396	1324
1397	903
1398	578
1399	437
1400	347
1401	331
1402	303
1403	257
1404	256
1405	244
1406	249
1407	231
1408	300
1409	258
1410	264
1411	270
1412	278
1413	265
1414	245
1415	250
1416	233
1417	256
1418	239
1419	230
1420	249
1421	250
1422	242
1423	250
1424	258
1425	243
1426	260
1427	259
1428	251
1429	223
1430	247
1431	214
1432	255
1433	240
1434	208
1435	222
1436	244
1437	211
1438	224
1439	218
1440	238
1441	271
1442	230
1443	234
1444	273
1445	258
1446	228
1447	240
1448	225
1449	227
1450	203
1451	233
1452	221
1453	241
1454	236
1455	213
1456	199
1457	226
1458	208
1459	212
1460	226
1461	203
1462	193
1463	207
1464	224
1465	186
1466	232
1467	206
1468	215
1469	187
1470	253
1471	220
1472	260
1473	198
1474	193
1475	192
1476	177
1477	197
1478	209
1479	176
1480	222
1481	235
1482	191
1483	199
1484	217
1485	209
1486	202
1487	214
1488	203
1489	204
1490	197
1491	231
1492	200
1493	231
1494	207
1495	204
1496	182
1497	193
1498	196
1499	189
1500	185
1501	177
1502	189
1503	190
1504	165
1505	218
1506	188
1507	190
1508	217
1509	169
1510	175
1511	191
1512	220
1513	203
1514	187
1515	174
1516	185
1517	180
1518	187
1519	216
1520	193
1521	178
1522	217
1523	201
1524	196
1525	209
1526	192
1527	221
1528	175
1529	168
1530	206
1531	184
1532	182
1533	191
1534	181
1535	171
1536	168
1537	195
1538	198
1539	191
1540	180
1541	159
1542	193
1543	197
1544	191
1545	195
1546	168
1547	173
1548	178
1549	196
1550	192
1551	202
1552	171
1553	198
1554	173
1555	176
1556	180
1557	203
1558	203
1559	188
1560	177
1561	188
1562	177
1563	193
1564	185
1565	175
1566	199
1567	177
1568	180
1569	193
1570	175
1571	180
1572	171
1573	161
1574	213
1575	181
1576	171
1577	196
1578	188
1579	177
1580	177
1581	174
1582	187
1583	176
1584	174
1585	185
1586	167
1587	178
1588	185
1589	180
1590	174
1591	199
1592	183
1593	176
1594	171
1595	169
1596	180
1597	154
1598	197
1599	164
1600	164
1601	209
1602	173
1603	179
1604	180
1605	173
1606	191
1607	181
1608	177
1609	167
1610	185
1611	178
1612	179
1613	178
1614	184
1615	162
1616	153
1617	180
1618	192
1619	191
1620	171
1621	181
1622	198
1623	158
1624	149
1625	164
1626	164
1627	198
1628	164
1629	184
1630	182
1631	171
1632	160
1633	185
1634	157
1635	182
1636	187
1637	179
1638	179
1639	185
1640	159
1641	186
1642	178
1643	182
1644	159
1645	179
1646	190
1647	193
1648	188
1649	167
1650	191
1651	162
1652	190
1653	168
1654	181
1655	184
1656	158
1657	194
1658	184
1659	178
1660	172
1661	183
1662	170
1663	190
1664	177
1665	192
1666	140
1667	175
1668	175
1669	170
1670	177
1671	175
1672	182
1673	200
1674	188
1675	162
1676	181
1677	187
1678	180
1679	200
1680	177
1681	175
1682	185
1683	189
1684	173
1685	173
1686	179
1687	144
1688	191
1689	174
1690	151
1691	179
1692	176
1693	189
1694	155
1695	190
1696	188
1697	177
1698	201
1699	172
1700	180
1701	167
1702	168
1703	196
1704	194
1705	184
1706	174
1707	191
1708	175
1709	143
1710	170
1711	162
1712	179
1713	183
1714	181
1715	174
1716	185
1717	181
1718	179
1719	193
1720	171
1721	193
1722	160
1723	180
1724	171
1725	190
1726	192
1727	180
1728	185
1729	163
1730	156
1731	210
1732	170
1733	179
1734	193
1735	171
1736	157
1737	176
1738	187
1739	189
1740	154
1741	171
1742	207
1743	182
1744	171
1745	185
1746	179
1747	144
1748	164
1749	168
1750	191
1751	166
1752	178
1753	169
1754	184
1755	229
1756	186
1757	162
1758	212
1759	168
1760	177
1761	173
1762	196
1763	180
1764	183
1765	179
1766	177
1767	183
1768	184
1769	173
1770	182
1771	184
1772	194
1773	243
1774	287
1775	425
1776	915
1777	2029
1778	4992
1779	10679
1780	17995
1781	23041
1782	22967
1783	17293
1784	9924
1785	3924
1786	1244
1787	341
1788	227
1789	157
1790	143
1791	149
1792	151
1793	163
1794	144
1795	155
1796	141
1797	164
1798	153
1799	165
1800	155
1801	145
1802	147
1803	156
1804	143
1805	127
1806	143
1807	168
1808	157
1809	133
1810	159
1811	144
1812	125
1813	145
1814	132
1815	150
1816	139
1817	151
1818	139
1819	156
1820	156
1821	132
1822	161
1823	143
1824	131
1825	142
1826	152
1827	131
1828	142
1829	137
1830	146
1831	140
1832	154
1833	133
1834	122
1835	144
1836	132
1837	145
1838	126
1839	142
1840	138
1841	126
1842	152
1843	150
1844	139
1845	147
1846	141
1847	150
1848	144
1849	117
1850	136
1851	151
1852	131
1853	155
1854	116
1855	139
1856	148
1857	139
1858	145
1859	132
1860	144
1861	138
1862	128
1863	125
1864	130
1865	145
1866	152
1867	133
1868	137
1869	160
1870	137
1871	137
1872	179
1873	129
1874	157
1875	158
1876	107
1877	128
1878	148
1879	144
1880	133
1881	156
1882	147
1883	149
1884	142
1885	102
1886	136
1887	141
1888	149
1889	149
1890	135
1891	139
1892	160
1893	144
1894	144
1895	141
1896	159
1897	131
1898	154
1899	136
1900	142
1901	150
1902	115
1903	145
1904	124
1905	158
1906	115
1907	137
1908	127
1909	131
1910	137
1911	137
1912	137
1913	166
1914	137
1915	145
1916	144
1917	128
1918	147
1919	139
1920	135
1921	136
1922	148
1923	117
1924	148
1925	131
1926	156
1927	123
1928	115
1929	148
1930	153
1931	130
1932	143
1933	116
1934	159
1935	151
1936	142
1937	151
1938	137
1939	130
1940	132
1941	150
1942	123
1943	165
1944	144
1945	140
1946	128
1947	135
1948	156
1949	138
1950	141
1951	130
1952	140
1953	132
1954	152
1955	142
1956	140
1957	130
1958	161
1959	159
1960	147
1961	150
1962	135
1963	149
1964	119
1965	140
1966	153
1967	132
1968	137
1969	127
1970	152
1971	133
1972	172
1973	173
1974	141
1975	154
1976	133
1977	153
1978	159
1979	158
1980	150
1981	151
1982	124
1983	143
1984	140
1985	163
1986	126
1987	151
1988	167
1989	134
1990	134
1991	124
1992	149
1993	131
1994	121
1995	146
1996	123
1997	151
1998	135
1999	139
2000	161
2001	167
2002	138
2003	147
2004	159
2005	150
2006	132
2007	158
2008	154
2009	158
2010	138
2011	176
2012	139
2013	144
2014	149
2015	161
2016	157
2017	142
2018	129
2019	141
2020	154
2021	149
2022	149
2023	167
2024	116
2025	160
2026	155
2027	175
2028	138
2029	153
2030	152
2031	137
2032	157
2033	153
2034	150
2035	171
2036	136
2037	141
2038	154
2039	153
2040	152
2041	143
2042	138
2043	154
2044	148
2045	161
2046	157
2047	159
2048	140
2049	153
2050	153
2051	137
2052	162
2053	140
2054	152
2055	169
2056	159
2057	153
2058	141
2059	141
2060	136
2061	150
2062	137
2063	165
2064	150
2065	150
2066	160
2067	153
2068	153
2069	148
2070	167
2071	168
2072	165
2073	146
2074	159
2075	152
2076	141
2077	154
2078	137
2079	149
2080	132
2081	121
2082	155
2083	144
2084	152
2085	155
2086	157
2087	145
2088	136
2089	165
2090	165
2091	164
2092	152
2093	152
2094	171
2095	153
2096	167
2097	156
2098	159
2099	141
2100	153
2101	144
2102	152
2103	175
2104	158
2105	150
2106	147
2107	147
2108	161
2109	160
2110	134
2111	164
2112	164
2113	144
2114	149
2115	159
2116	174
2117	154
2118	142
2119	156
2120	166
2121	155
2122	127
2123	156
2124	158
2125	166
2126	158
2127	155
2128	153
2129	168
2130	158
2131	160
2132	141
2133	154
2134	151
2135	160
2136	161
2137	155
2138	162
2139	163
2140	149
2141	150
2142	145
2143	156
2144	169
2145	156
2146	152
2147	159
2148	154
2149	164
2150	168
2151	150
2152	156
2153	158
2154	143
2155	151
2156	184
2157	161
2158	183
2159	156
2160	167
2161	146
2162	148
2163	158
2164	169
2165	160
2166	154
2167	140
2168	181
2169	162
2170	130
2171	165
2172	177
2173	157
2174	177
2175	181
2176	172
2177	172
2178	147
2179	144
2180	165
2181	173
2182	152
2183	147
2184	174
2185	165
2186	163
2187	166
2188	200
2189	149
2190	179
2191	167
2192	169
2193	202
2194	168
2195	206
2196	175
2197	162
2198	171
2199	177
2200	180
2201	155
2202	181
2203	149
2204	167
2205	164
2206	153
2207	169
2208	169
2209	174
2210	176
2211	158
2212	155
2213	168
2214	162
2215	165
2216	148
2217	134
2218	148
2219	192
2220	164
2221	176
2222	165
2223	188
2224	143
2225	168
2226	158
2227	159
2228	163
2229	184
2230	158
2231	154
2232	150
2233	174
2234	184
2235	189
2236	187
2237	184
2238	184
2239	177
2240	156
2241	180
2242	167
2243	174
2244	168
2245	180
2246	176
2247	154
2248	176
2249	161
2250	154
2251	161
2252	176
2253	184
2254	180
2255	150
2256	189
2257	158
2258	193
2259	188
2260	182
2261	188
2262	184
2263	186
2264	177
2265	162
2266	201
2267	180
2268	181
2269	183
2270	144
2271	180
2272	165
2273	171
2274	184
2275	188
2276	189
2277	178
2278	179
2279	199
2280	186
2281	201
2282	184
2283	175
2284	181
2285	178
2286	178
2287	160
2288	185
2289	180
2290	180
2291	175
2292	163
2293	172
2294	198
2295	173
2296	162
2297	189
2298	190
2299	185
2300	176
2301	204
2302	191
2303	186
2304	194
2305	174
2306	167
2307	176
2308	177
2309	176
2310	185
2311	187
2312	192
2313	199
2314	168
2315	178
2316	179
2317	198
2318	193
2319	170
2320	178
2321	173
2322	193
2323	174
2324	173
2325	201
2326	176
2327	199
2328	218
2329	193
2330	184
2331	215
2332	189
2333	189
2334	159
2335	208
2336	171
2337	190
2338	191
2339	181
2340	205
2341	193
2342	179
2343	182
2344	209
2345	166
2346	219
2347	198
2348	183
2349	204
2350	214
2351	198
2352	210
2353	218
2354	190
2355	191
2356	189
2357	198
2358	179
2359	193
2360	199
2361	183
2362	232
2363	213
2364	195
2365	177
2366	190
2367	203
2368	172
2369	224
2370	180
2371	186
2372	204
2373	198
2374	237
2375	200
2376	203
2377	192
2378	192
2379	209
2380	205
2381	205
2382	201
2383	200
2384	190
2385	216
2386	199
2387	224
2388	194
2389	208
2390	188
2391	187
2392	191
2393	225
2394	216
2395	203
2396	210
2397	193
2398	211
2399	210
2400	199
2401	205
2402	176
2403	224
2404	197
2405	204
2406	226
2407	212
2408	200
2409	239
2410	189
2411	206
2412	220
2413	219
2414	222
2415	219
2416	205
2417	201
2418	227
2419	214
2420	216
2421	252
2422	198
2423	209
2424	220
2425	223
2426	192
2427	208
2428	204
2429	209
2430	233
2431	222
2432	217
2433	198
2434	220
2435	205
2436	227
2437	220
2438	226
2439	243
2440	208
2441	237
2442	227
2443	199
2444	224
2445	221
2446	220
2447	198
2448	208
2449	226
2450	217
2451	235
2452	216
2453	201
2454	221
2455	204
2456	197
2457	217
2458	234
2459	212
2460	212
2461	212
2462	230
2463	208
2464	233
2465	228
2466	242
2467	195
2468	221
2469	229
2470	226
2471	229
2472	243
2473	215
2474	264
2475	233
2476	246
2477	234
2478	242
2479	247
2480	237
2481	230
2482	234
2483	240
2484	260
2485	247
2486	252
2487	246
2488	246
2489	251
2490	208
2491	209
2492	247
2493	247
2494	235
2495	253
2496	250
2497	253
2498	235
2499	248
2500	217
2501	247
2502	224
2503	236
2504	275
2505	248
2506	262
2507	281
2508	230
2509	269
2510	259
2511	247
2512	278
2513	236
2514	255
2515	242
2516	245
2517	257
2518	246
2519	258
2520	239
2521	245
2522	262
2523	245
2524	244
2525	242
2526	244
2527	237
2528	239
2529	272
2530	273
2531	256
2532	258
2533	231
2534	249
2535	247
2536	271
2537	257
2538	252
2539	260
2540	283
2541	253
2542	259
2543	269
2544	268
2545	237
2546	278
2547	259
2548	264
2549	270
2550	289
2551	261
2552	228
2553	258
2554	270
2555	221
2556	261
2557	240
2558	253
2559	245
2560	241
2561	240
2562	217
2563	231
2564	212
2565	214
2566	217
2567	217
2568	213
2569	205
2570	201
2571	233
2572	233
2573	213
2574	201
2575	200
2576	208
2577	219
2578	196
2579	211
2580	184
2581	219
2582	193
2583	182
2584	177
2585	196
2586	192
2587	208
2588	197
2589	208
2590	181
2591	211
2592	184
2593	216
2594	188
2595	180
2596	189
2597	184
2598	191
2599	199
2600	186
2601	175
2602	197
2603	196
2604	222
2605	202
2606	190
2607	192
2608	201
2609	169
2610	193
2611	175
2612	192
2613	177
2614	183
2615	202
2616	191
2617	167
2618	196
2619	177
2620	184
2621	163
2622	175
2623	183
2624	188
2625	210
2626	198
2627	170
2628	206
2629	195
2630	170
2631	180
2632	179
2633	198
2634	167
2635	184
2636	169
2637	182
2638	197
2639	195
2640	173
2641	175
2642	182
2643	203
2644	180
2645	174
2646	193
2647	195
2648	190
2649	179
2650	185
2651	196
2652	176
2653	211
2654	176
2655	214
2656	203
2657	175
2658	160
2659	166
2660	160
2661	169
2662	166
2663	176
2664	192
2665	179
2666	222
2667	164
2668	163
2669	210
2670	176
2671	190
2672	181
2673	195
2674	178
2675	180
2676	167
2677	178
2678	180
2679	197
2680	183
2681	178
2682	171
2683	179
2684	186
2685	201
2686	198
2687	188
2688	174
2689	188
2690	164
2691	206
2692	182
2693	151
2694	169
2695	170
2696	206
2697	177
2698	171
2699	180
2700	183
2701	186
2702	191
2703	166
2704	177
2705	192
2706	178
2707	187
2708	168
2709	163
2710	197
2711	209
2712	210
2713	179
2714	184
2715	168
2716	169
2717	141
2718	177
2719	156
2720	168
2721	182
2722	181
2723	163
2724	177
2725	180
2726	173
2727	172
2728	164
2729	173
2730	164
2731	152
2732	169
2733	160
2734	203
2735	165
2736	181
2737	164
2738	179
2739	181
2740	144
2741	162
2742	156
2743	197
2744	168
2745	167
2746	192
2747	198
2748	178
2749	162
2750	170
2751	181
2752	199
2753	176
2754	168
2755	183
2756	172
2757	153
2758	182
2759	174
2760	168
2761	171
2762	167
2763	175
2764	179
2765	184
2766	165
2767	165
2768	176
2769	171
2770	174
2771	149
2772	158
2773	171
2774	162
2775	156
2776	171
2777	163
2778	173
2779	174
2780	177
2781	188
2782	169
2783	154
2784	156
2785	160
2786	160
2787	174
2788	159
2789	165
2790	184
2791	195
2792	149
2793	152
2794	183
2795	161
2796	170
2797	147
2798	163
2799	151
2800	153
2801	173
2802	163
2803	142
2804	151
2805	160
2806	154
2807	144
2808	164
2809	159
2810	147
2811	165
2812	156
2813	162
2814	146
2815	144
2816	144
2817	170
2818	142
2819	170
2820	171
2821	162
2822	176
2823	175
2824	147
2825	150
2826	164
2827	161
2828	168
2829	157
2830	184
2831	174
2832	158
2833	136
2834	169
2835	167
2836	174
2837	159
2838	164
2839	165
2840	177
2841	171
2842	169
2843	158
2844	157
2845	170
2846	167
2847	182
2848	138
2849	187
2850	172
2851	165
2852	159
2853	173
2854	189
2855	165
2856	178
2857	171
2858	154
2859	153
2860	161
2861	148
2862	152
2863	165
2864	159
2865	181
2866	150
2867	170
2868	192
2869	147
2870	187
2871	178
2872	180
2873	166
2874	162
2875	172
2876	177
2877	175
2878	168
2879	166
2880	155
2881	180
2882	186
2883	166
2884	185
2885	162
2886	167
2887	169
2888	157
2889	190
2890	183
2891	180
2892	187
2893	160
2894	152
2895	177
2896	148
2897	184
2898	187
2899	173
2900	173
2901	191
2902	203
2903	162
2904	144
2905	162
2906	157
2907	159
2908	168
2909	169
2910	179
2911	191
2912	154
2913	173
2914	175
2915	168
2916	163
2917	173
2918	183
2919	167
2920	175
2921	167
2922	179
2923	176
2924	175
2925	176
2926	164
2927	181
2928	172
2929	185
2930	177
2931	166
2932	191
2933	156
2934	176
2935	183
2936	163
2937	154
2938	161
2939	187
2940	192
2941	174
2942	159
2943	169
2944	184
2945	173
2946	177
2947	188
2948	172
2949	156
2950	152
2951	162
2952	162
2953	188
2954	172
2955	167
2956	150
2957	175
2958	151
2959	140
2960	145
2961	133
2962	183
2963	145
2964	140
2965	126
2966	141
2967	136
2968	133
2969	122
2970	148
2971	150
2972	141
2973	137
2974	119
2975	125
2976	123
2977	140
2978	119
2979	115
2980	116
2981	118
2982	150
2983	124
2984	129
2985	116
2986	127
2987	107
2988	106
2989	138
2990	123
2991	94
2992	129
2993	108
2994	100
2995	91
2996	113
2997	112
2998	116
2999	109
3000	123
3001	103
3002	98
3003	116
3004	113
3005	101
3006	106
3007	109
3008	110
3009	107
3010	100
3011	118
3012	110
3013	96
3014	94
3015	121
3016	111
3017	96
3018	80
3019	95
3020	95
3021	89
3022	113
3023	109
3024	109
3025	94
3026	97
3027	115
3028	90
3029	96
3030	103
3031	92
3032	101
3033	90
3034	85
3035	95
3036	116
3037	108
3038	94
3039	93
3040	80
3041	89
3042	92
3043	88
3044	89
3045	92
3046	79
3047	100
3048	106
3049	90
3050	106
3051	101
3052	83
3053	105
3054	76
3055	90
3056	97
3057	84
3058	76
3059	85
3060	89
3061	90
3062	89
3063	82
3064	82
3065	77
3066	75
3067	87
3068	91
3069	95
3070	80
3071	79
3072	82
3073	69
3074	67
3075	89
3076	79
3077	90
3078	81
3079	85
3080	78
3081	83
3082	105
3083	90
3084	100
3085	82
3086	99
3087	86
3088	92
3089	88
3090	84
3091	77
3092	79
3093	92
3094	88
3095	75
3096	93
3097	91
3098	83
3099	153
3100	196
3101	384
3102	871
3103	1942
3104	3907
3105	6736
3106	9393
3107	10538
3108	9978
3109	7367
3110	4375
3111	2074
3112	800
3113	273
3114	119
3115	72
3116	78
3117	79
3118	84
3119	90
3120	51
3121	76
3122	83
3123	58
3124	86
3125	71
3126	67
3127	60
3128	53
3129	64
3130	72
3131	68
3132	57
3133	54
3134	60
3135	55
3136	53
3137	79
3138	57
3139	49
3140	56
3141	67
3142	61
3143	59
3144	70
3145	55
3146	55
3147	65
3148	51
3149	56
3150	52
3151	44
3152	50
3153	54
3154	48
3155	65
3156	58
3157	55
3158	68
3159	59
3160	61
3161	47
3162	51
3163	54
3164	57
3165	50
3166	44
3167	50
3168	59
3169	52
3170	45
3171	48
3172	49
3173	56
3174	49
3175	46
3176	44
3177	44
3178	38
3179	51
3180	47
3181	52
3182	36
3183	43
3184	49
3185	41
3186	48
3187	45
3188	41
3189	52
3190	59
3191	34
3192	49
3193	36
3194	54
3195	31
3196	44
3197	35
3198	46
3199	36
3200	35
3201	41
3202	41
3203	41
3204	39
3205	41
3206	44
3207	36
3208	36
3209	37
3210	40
3211	37
3212	28
3213	51
3214	33
3215	41
3216	37
3217	37
3218	35
3219	33
3220	36
3221	32
3222	29
3223	33
3224	30
3225	34
3226	34
3227	35
3228	40
3229	32
3230	35
3231	31
3232	28
3233	27
3234	33
3235	26
3236	32
3237	38
3238	37
3239	28
3240	39
3241	33
3242	24
3243	30
3244	24
3245	22
3246	25
3247	26
3248	29
3249	31
3250	23
3251	21
3252	30
3253	25
3254	33
3255	27
3256	28
3257	29
3258	24
3259	20
3260	27
3261	21
3262	39
3263	25
3264	28
3265	27
3266	24
3267	24
3268	32
3269	26
3270	24
3271	31
3272	27
3273	34
3274	33
3275	31
3276	28
3277	25
3278	35
3279	29
3280	34
3281	22
3282	17
3283	30
3284	19
3285	28
3286	18
3287	21
3288	23
3289	23
3290	26
3291	27
3292	17
3293	22
3294	22
3295	29
3296	15
3297	21
3298	29
3299	15
3300	22
3301	25
3302	26
3303	26
3304	23
3305	27
3306	21
3307	14
3308	29
3309	26
3310	22
3311	27
3312	26
3313	15
3314	24
3315	14
3316	21
3317	19
3318	20
3319	24
3320	20
3321	21
3322	12
3323	21
3324	23
3325	16
3326	28
3327	26
3328	16
3329	25
3330	13
3331	15
3332	21
3333	27
3334	19
3335	17
3336	18
3337	20
3338	19
3339	22
3340	32
3341	21
3342	16
3343	22
3344	21
3345	19
3346	19
3347	25
3348	23
3349	12
3350	22
3351	17
3352	17
3353	16
3354	20
3355	18
3356	25
3357	22
3358	23
3359	22
3360	16
3361	27
3362	35
3363	42
3364	86
3365	205
3366	347
3367	678
3368	992
3369	1289
3370	1425
3371	1210
3372	875
3373	522
3374	232
3375	91
3376	42
3377	30
3378	29
3379	23
3380	17
3381	19
3382	24
3383	24
3384	16
3385	25
3386	7
3387	28
3388	18
3389	19
3390	19
3391	19
3392	26
3393	22
3394	19
3395	14
3396	21
3397	21
3398	17
3399	18
3400	13
3401	14
3402	24
3403	16
3404	16
3405	15
3406	12
3407	26
3408	17
3409	25
3410	16
3411	10
3412	14
3413	21
3414	21
3415	22
3416	15
3417	22
3418	24
3419	15
3420	12
3421	16
3422	21
3423	14
3424	17
3425	21
3426	19
3427	11
3428	19
3429	15
3430	16
3431	13
3432	14
3433	22
3434	14
3435	17
3436	20
3437	20
3438	26
3439	18
3440	15
3441	16
3442	23
3443	19
3444	10
3445	14
3446	18
3447	14
3448	20
3449	17
3450	16
3451	16
3452	13
3453	16
3454	19
3455	18
3456	15
3457	11
3458	18
3459	16
3460	18
3461	11
3462	13
3463	15
3464	14
3465	14
3466	7
3467	20
3468	14
3469	18
3470	22
3471	10
3472	9
3473	16
3474	18
3475	21
3476	21
3477	16
3478	7
3479	14
3480	17
3481	22
3482	12
3483	15
3484	15
3485	11
3486	11
3487	17
3488	11
3489	12
3490	15
3491	20
3492	6
3493	21
3494	19
3495	15
3496	14
3497	18
3498	19
3499	14
3500	13
3501	11
3502	19
3503	19
3504	23
3505	29
3506	29
3507	22
3508	27
3509	30
3510	22
3511	42
3512	62
3513	181
3514	362
3515	876
3516	2085
3517	3738
3518	6216
3519	8239
3520	9219
3521	8412
3522	6146
3523	3677
3524	1718
3525	715
3526	224
3527	83
3528	25
3529	31
3530	18
3531	23
3532	22
3533	10
3534	9
3535	18
3536	16
3537	12
3538	12
3539	7
3540	8
3541	10
3542	8
3543	8
3544	11
3545	9
3546	12
3547	10
3548	7
3549	13
3550	12
3551	10
3552	8
3553	11
3554	9
3555	7
3556	11
3557	12
3558	9
3559	6
3560	10
3561	12
3562	7
3563	12
3564	10
3565	4
3566	6
3567	9
3568	6
3569	9
3570	10
3571	6
3572	6
3573	8
3574	8
3575	10
3576	9
3577	9
3578	6
3579	8
3580	8
3581	6
3582	13
3583	6
3584	7
3585	6
3586	9
3587	5
3588	7
3589	7
3590	6
3591	9
3592	9
3593	8
3594	7
3595	8
3596	10
3597	5
3598	7
3599	4
3600	8
3601	4
3602	6
3603	4
3604	6
3605	3
3606	10
3607	11
3608	9
3609	2
3610	9
3611	7
3612	9
3613	8
3614	11
3615	7
3616	14
3617	7
3618	6
3619	7
3620	10
3621	4
3622	7
3623	6
3624	7
3625	6
3626	9
3627	7
3628	7
3629	8
3630	11
3631	6
3632	6
3633	7
3634	4
3635	7
3636	8
3637	8
3638	7
3639	7
3640	6
3641	9
3642	9
3643	7
3644	3
3645	10
3646	6
3647	5
3648	4
3649	12
3650	2
3651	6
3652	7
3653	5
3654	10
3655	7
3656	5
3657	3
3658	9
3659	1
3660	4
3661	7
3662	3
3663	6
3664	9
3665	6
3666	13
3667	3
3668	5
3669	11
3670	6
3671	8
3672	5
3673	9
3674	9
3675	7
3676	5
3677	7
3678	6
3679	6
3680	6
3681	6
3682	8
3683	10
3684	3
3685	5
3686	3
3687	8
3688	4
3689	7
3690	8
3691	4
3692	5
3693	5
3694	9
3695	8
3696	9
3697	12
3698	3
3699	4
3700	1
3701	7
3702	8
3703	6
3704	5
3705	11
3706	6
3707	4
3708	6
3709	8
3710	5
3711	6
3712	6
3713	4
3714	6
3715	9
3716	7
3717	12
3718	3
3719	5
3720	5
3721	5
3722	5
3723	5
3724	4
3725	1
3726	4
3727	4
3728	2
3729	6
3730	4
3731	7
3732	6
3733	6
3734	6
3735	2
3736	4
3737	5
3738	7
3739	6
3740	8
3741	3
3742	1
3743	5
3744	3
3745	9
3746	8
3747	5
3748	6
3749	8
3750	5
3751	7
3752	6
3753	5
3754	7
3755	8
3756	5
3757	3
3758	9
3759	7
3760	4
3761	9
3762	7
3763	3
3764	4
3765	8
3766	5
3767	5
3768	3
3769	7
3770	5
3771	4
3772	6
3773	5
3774	8
3775	5
3776	6
3777	1
3778	3
3779	4
3780	5
3781	4
3782	3
3783	6
3784	5
3785	4
3786	5
3787	5
3788	6
3789	8
3790	6
3791	7
3792	8
3793	8
3794	6
3795	2
3796	7
3797	5
3798	6
3799	6
3800	7
3801	7
3802	2
3803	4
3804	4
3805	6
3806	5
3807	6
3808	6
3809	6
3810	7
3811	14
3812	6
3813	6
3814	5
3815	5
3816	5
3817	8
3818	8
3819	5
3820	6
3821	7
3822	3
3823	4
3824	8
3825	9
3826	3
3827	5
3828	6
3829	6
3830	6
3831	10
3832	9
3833	2
3834	2
3835	8
3836	7
3837	3
3838	6
3839	6
3840	4
3841	3
3842	6
3843	9
3844	4
3845	5
3846	4
3847	5
3848	6
3849	5
3850	7
3851	6
3852	5
3853	10
3854	3
3855	8
3856	4
3857	5
3858	10
3859	5
3860	6
3861	4
3862	4
3863	1
3864	5
3865	6
3866	9
3867	3
3868	5
3869	6
3870	0
3871	4
3872	4
3873	4
3874	2
3875	6
3876	10
3877	9
3878	6
3879	4
3880	7
3881	3
3882	3
3883	9
3884	10
3885	5
3886	3
3887	4
3888	4
3889	3
3890	9
3891	11
3892	5
3893	3
3894	4
3895	8
3896	6
3897	8
3898	9
3899	4
3900	7
3901	3
3902	6
3903	4
3904	6
3905	7
3906	4
3907	3
3908	6
3909	6
3910	6
3911	3
3912	7
3913	6
3914	7
3915	5
3916	5
3917	6
3918	9
3919	4
3920	1
3921	5
3922	2
3923	6
3924	6
3925	5
3926	0
3927	4
3928	6
3929	7
3930	2
3931	6
3932	4
3933	4
3934	3
3935	5
3936	3
3937	7
3938	3
3939	7
3940	5
3941	3
3942	5
3943	8
3944	5
3945	6
3946	8
3947	2
3948	6
3949	6
3950	2
3951	1
3952	4
3953	6
3954	6
3955	9
3956	5
3957	4
3958	5
3959	2
3960	4
3961	7
3962	4
3963	7
3964	5
3965	6
3966	6
3967	7
3968	8
3969	6
3970	3
3971	2
3972	9
3973	5
3974	8
3975	5
3976	6
3977	1
3978	3
3979	5
3980	4
3981	7
3982	5
3983	4
3984	2
3985	6
3986	4
3987	5
3988	9
3989	3
3990	4
3991	5
3992	6
3993	4
3994	2
3995	3
3996	8
3997	7
3998	7
3999	4
4000	6
4001	2
4002	9
4003	5
4004	5
4005	2
4006	2
4007	3
4008	7
4009	10
4010	9
4011	3
4012	3
4013	1
4014	5
4015	6
4016	5
4017	6
4018	6
4019	5
4020	5
4021	4
4022	2
4023	1
4024	6
4025	5
4026	4
4027	4
4028	2
4029	4
4030	4
4031	3
4032	4
4033	3
4034	3
4035	4
4036	2
4037	4
4038	4
4039	9
4040	5
4041	2
4042	6
4043	3
4044	4
4045	4
4046	8
4047	5
4048	4
4049	7
4050	7
4051	5
4052	4
4053	4
4054	4
4055	5
4056	2
4057	1
4058	5
4059	8
4060	6
4061	6
4062	6
4063	8
4064	8
4065	7
4066	3
4067	3
4068	4
4069	8
4070	6
4071	8
4072	8
4073	2
4074	2
4075	6
4076	11
4077	5
4078	4
4079	7
4080	6
4081	4
4082	5
4083	5
4084	4
4085	7
4086	8
4087	3
4088	8
4089	4
4090	5
4091	6
4092	2
4093	9
4094	5
4095	5
4096	9
4097	2
4098	4
4099	6
4100	3
4101	2
4102	9
4103	4
4104	4
4105	5
4106	3
4107	3
4108	5
4109	2
4110	7
4111	5
4112	3
4113	3
4114	9
4115	3
4116	7
4117	6
4118	4
4119	7
4120	8
4121	6
4122	4
4123	5
4124	4
4125	9
4126	5
4127	5
4128	7
4129	3
4130	3
4131	8
4132	4
4133	4
4134	5
4135	3
4136	5
4137	1
4138	7
4139	4
4140	3
4141	4
4142	3
4143	5
4144	4
4145	4
4146	6
4147	5
4148	3
4149	4
4150	5
4151	3
4152	2
4153	1
4154	1
4155	4
4156	10
4157	5
4158	3
4159	8
4160	8
4161	6
4162	2
4163	6
4164	3
4165	5
4166	8
4167	3
4168	1
4169	7
4170	4
4171	2
4172	4
4173	3
4174	5
4175	6
4176	4
4177	9
4178	1
4179	4
4180	3
4181	7
4182	8
4183	4
4184	3
4185	7
4186	4
4187	2
4188	5
4189	3
4190	2
4191	4
4192	3
4193	4
4194	8
4195	9
4196	8
4197	4
4198	5
4199	9
4200	2
4201	4
4202	0
4203	3
4204	5
4205	2
4206	7
4207	2
4208	3
4209	5
4210	6
4211	5
4212	5
4213	6
4214	3
4215	5
4216	5
4217	4
4218	2
4219	6
4220	3
4221	8
4222	3
4223	2
4224	5
4225	2
4226	6
4227	2
4228	1
4229	3
4230	2
4231	1
4232	5
4233	4
4234	5
4235	2
4236	6
4237	5
4238	6
4239	2
4240	3
4241	3
4242	0
4243	5
4244	6
4245	6
4246	4
4247	4
4248	4
4249	2
4250	1
4251	7
4252	10
4253	6
4254	1
4255	2
4256	6
4257	4
4258	4
4259	2
4260	5
4261	4
4262	3
4263	4
4264	5
4265	4
4266	2
4267	1
4268	3
4269	4
4270	2
4271	3
4272	2
4273	3
4274	2
4275	4
4276	2
4277	4
4278	3
4279	4
4280	1
4281	6
4282	5
4283	3
4284	5
4285	1
4286	5
4287	1
4288	2
4289	2
4290	7
4291	4
4292	5
4293	6
4294	5
4295	2
4296	1
4297	7
4298	4
4299	3
4300	2
4301	7
4302	6
4303	4
4304	6
4305	1
4306	3
4307	5
4308	3
4309	7
4310	6
4311	3
4312	4
4313	1
4314	6
4315	4
4316	1
4317	2
4318	2
4319	4
4320	4
4321	3
4322	3
4323	6
4324	1
4325	4
4326	7
4327	5
4328	2
4329	2
4330	3
4331	1
4332	5
4333	3
4334	3
4335	3
4336	4
4337	4
4338	2
4339	6
4340	3
4341	3
4342	5
4343	5
4344	8
4345	4
4346	5
4347	3
4348	6
4349	3
4350	1
4351	5
4352	4
4353	4
4354	6
4355	3
4356	2
4357	3
4358	3
4359	2
4360	3
4361	5
4362	2
4363	4
4364	5
4365	7
4366	5
4367	2
4368	4
4369	8
4370	6
4371	2
4372	2
4373	4
4374	3
4375	2
4376	4
4377	2
4378	2
4379	2
4380	6
4381	4
4382	3
4383	3
4384	8
4385	5
4386	4
4387	3
4388	2
4389	0
4390	6
4391	3
4392	4
4393	1
4394	4
4395	5
4396	3
4397	3
4398	2
4399	6
4400	9
4401	4
4402	7
4403	3
4404	1
4405	3
4406	1
4407	5
4408	6
4409	2
4410	3
4411	3
4412	3
4413	4
4414	4
4415	4
4416	4
4417	5
4418	4
4419	1
4420	2
4421	6
4422	3
4423	6
4424	3
4425	3
4426	3
4427	3
4428	1
4429	7
4430	2
4431	4
4432	4
4433	4
4434	7
4435	4
4436	1
4437	6
4438	3
4439	4
4440	2
4441	9
4442	4
4443	2
4444	6
4445	6
4446	5
4447	4
4448	7
4449	4
4450	2
4451	5
4452	6
4453	1
4454	2
4455	0
4456	5
4457	1
4458	4
4459	2
4460	1
4461	1
4462	4
4463	1
4464	1
4465	3
4466	0
4467	2
4468	2
4469	5
4470	3
4471	2
4472	1
4473	5
4474	6
4475	1
4476	5
4477	1
4478	3
4479	1
4480	1
4481	4
4482	4
4483	6
4484	2
4485	3
4486	4
4487	3
4488	4
4489	4
4490	3
4491	1
4492	7
4493	3
4494	2
4495	3
4496	4
4497	3
4498	6
4499	2
4500	3
4501	1
4502	7
4503	1
4504	4
4505	2
4506	4
4507	2
4508	2
4509	0
4510	2
4511	2
4512	4
4513	2
4514	5
4515	1
4516	7
4517	3
4518	2
4519	3
4520	4
4521	3
4522	5
4523	1
4524	4
4525	4
4526	1
4527	2
4528	2
4529	2
4530	0
4531	5
4532	3
4533	4
4534	5
4535	2
4536	2
4537	5
4538	4
4539	1
4540	5
4541	3
4542	3
4543	4
4544	4
4545	3
4546	4
4547	6
4548	4
4549	2
4550	3
4551	3
4552	5
4553	3
4554	2
4555	7
4556	1
4557	2
4558	2
4559	2
4560	8
4561	5
4562	2
4563	1
4564	7
4565	3
4566	5
4567	2
4568	2
4569	5
4570	3
4571	2
4572	2
4573	1
4574	4
4575	3
4576	5
4577	2
4578	0
4579	3
4580	2
4581	4
4582	4
4583	2
4584	3
4585	2
4586	0
4587	1
4588	2
4589	4
4590	2
4591	1
4592	3
4593	6
4594	1
4595	1
4596	4
4597	8
4598	6
4599	7
4600	3
4601	2
4602	4
4603	2
4604	2
4605	4
4606	4
4607	6
4608	1
4609	4
4610	6
4611	3
4612	8
4613	4
4614	3
4615	4
4616	5
4617	2
4618	3
4619	0
4620	4
4621	5
4622	1
4623	2
4624	4
4625	1
4626	5
4627	2
4628	5
4629	3
4630	6
4631	5
4632	3
4633	2
4634	5
4635	2
4636	4
4637	4
4638	2
4639	4
4640	4
4641	6
4642	3
4643	3
4644	2
4645	11
4646	3
4647	6
4648	0
4649	3
4650	2
4651	6
4652	7
4653	3
4654	2
4655	2
4656	1
4657	2
4658	3
4659	1
4660	6
4661	7
4662	3
4663	6
4664	2
4665	2
4666	5
4667	3
4668	0
4669	5
4670	4
4671	6
4672	2
4673	3
4674	5
4675	2
4676	3
4677	1
4678	4
4679	1
4680	1
4681	6
4682	7
4683	1
4684	5
4685	3
4686	4
4687	7
4688	7
4689	10
4690	10
4691	10
4692	18
4693	16
4694	20
4695	20
4696	20
4697	12
4698	15
4699	17
4700	8
4701	2
4702	5
4703	8
4704	1
4705	2
4706	3
4707	4
4708	5
4709	8
4710	1
4711	1
4712	2
4713	3
4714	2
4715	2
4716	3
4717	3
4718	3
4719	3
4720	4
4721	4
4722	1
4723	5
4724	6
4725	6
4726	3
4727	1
4728	2
4729	6
4730	1
4731	6
4732	1
4733	2
4734	2
4735	3
4736	2
4737	4
4738	3
4739	4
4740	2
4741	2
4742	1
4743	2
4744	4
4745	2
4746	2
4747	4
4748	6
4749	1
4750	4
4751	1
4752	4
4753	1
4754	1
4755	3
4756	4
4757	4
4758	2
4759	4
4760	0
4761	0
4762	3
4763	3
4764	5
4765	4
4766	5
4767	5
4768	3
4769	1
4770	2
4771	6
4772	3
4773	2
4774	3
4775	3
4776	1
4777	1
4778	3
4779	1
4780	3
4781	4
4782	2
4783	4
4784	5
4785	2
4786	5
4787	5
4788	4
4789	2
4790	1
4791	5
4792	7
4793	6
4794	6
4795	2
4796	3
4797	5
4798	3
4799	5
4800	3
4801	2
4802	4
4803	3
4804	5
4805	4
4806	4
4807	5
4808	5
4809	2
4810	1
4811	3
4812	3
4813	3
4814	2
4815	8
4816	2
4817	4
4818	4
4819	1
4820	6
4821	5
4822	2
4823	5
4824	5
4825	7
4826	3
4827	3
4828	1
4829	5
4830	3
4831	3
4832	2
4833	1
4834	2
4835	7
4836	3
4837	6
4838	3
4839	6
4840	5
4841	4
4842	4
4843	8
4844	2
4845	5
4846	5
4847	2
4848	3
4849	3
4850	2
4851	2
4852	0
4853	3
4854	3
4855	6
4856	3
4857	4
4858	1
4859	1
4860	2
4861	3
4862	6
4863	3
4864	5
4865	1
4866	2
4867	7
4868	1
4869	4
4870	1
4871	3
4872	0
4873	8
4874	3
4875	9
4876	3
4877	1
4878	2
4879	4
4880	2
4881	1
4882	4
4883	4
4884	4
4885	2
4886	4
4887	3
4888	2
4889	1
4890	1
4891	3
4892	3
4893	6
4894	3
4895	3
4896	1
4897	2
4898	5
4899	1
4900	4
4901	3
4902	0
4903	2
4904	2
4905	4
4906	3
4907	6
4908	6
4909	0
4910	3
4911	4
4912	1
4913	1
4914	2
4915	4
4916	6
4917	4
4918	3
4919	3
4920	3
4921	5
4922	1
4923	1
4924	2
4925	0
4926	3
4927	6
4928	2
4929	4
4930	4
4931	0
4932	2
4933	1
4934	3
4935	4
4936	2
4937	6
4938	3
4939	4
4940	9
4941	5
4942	1
4943	4
4944	4
4945	4
4946	4
4947	4
4948	2
4949	4
4950	0
4951	3
4952	3
4953	1
4954	3
4955	3
4956	0
4957	1
4958	1
4959	2
4960	2
4961	2
4962	0
4963	0
4964	4
4965	2
4966	5
4967	6
4968	2
4969	1
4970	4
4971	5
4972	0
4973	2
4974	2
4975	8
4976	0
4977	5
4978	6
4979	5
4980	2
4981	0
4982	5
4983	1
4984	4
4985	1
4986	3
4987	1
4988	2
4989	2
4990	3
4991	1
4992	5
4993	4
4994	2
4995	3
4996	1
4997	8
4998	2
4999	3
5000	3
5001	4
5002	5
5003	3
5004	2
5005	3
5006	2
5007	3
5008	2
5009	4
5010	6
5011	1
5012	2
5013	4
5014	1
5015	4
5016	1
5017	5
5018	2
5019	5
5020	0
5021	2
5022	2
5023	3
5024	4
5025	5
5026	2
5027	4
5028	0
5029	4
5030	3
5031	3
5032	2
5033	2
5034	4
5035	4
5036	5
5037	3
5038	4
5039	3
5040	9
5041	0
5042	0
5043	3
5044	3
5045	2
5046	4
5047	3
5048	5
5049	4
5050	3
5051	4
5052	6
5053	6
5054	4
5055	3
5056	6
5057	4
5058	0
5059	1
5060	3
5061	3
5062	2
5063	7
5064	8
5065	6
5066	1
5067	1
5068	2
5069	2
5070	2
5071	2
5072	2
5073	2
5074	2
5075	4
5076	3
5077	4
5078	3
5079	4
5080	7
5081	5
5082	2
5083	4
5084	5
5085	4
5086	4
5087	1
5088	1
5089	2
5090	3
5091	3
5092	1
5093	4
5094	0
5095	3
5096	2
5097	0
5098	0
5099	1
5100	2
5101	3
5102	7
5103	2
5104	2
5105	1
5106	3
5107	1
5108	4
5109	1
5110	1
5111	2
5112	2
5113	2
5114	2
5115	2
5116	5
5117	1
5118	2
5119	3
5120	2
5121	2
5122	2
5123	2
5124	6
5125	3
5126	5
5127	5
5128	2
5129	4
5130	4
5131	7
5132	3
5133	0
5134	2
5135	2
5136	2
5137	1
5138	1
5139	2
5140	3
5141	8
5142	3
5143	5
5144	2
5145	4
5146	1
5147	2
5148	5
5149	4
5150	4
5151	2
5152	4
5153	1
5154	5
5155	5
5156	4
5157	3
5158	4
5159	3
5160	3
5161	3
5162	5
5163	5
5164	3
5165	3
5166	6
5167	4
5168	1
5169	0
5170	3
5171	3
5172	3
5173	2
5174	3
5175	2
5176	2
5177	2
5178	1
5179	1
5180	3
5181	2
5182	4
5183	3
5184	4
5185	3
5186	3
5187	2
5188	4
5189	7
5190	1
5191	5
5192	2
5193	4
5194	4
5195	4
5196	3
5197	4
5198	3
5199	2
5200	4
5201	3
5202	4
5203	1
5204	2
5205	3
5206	2
5207	2
5208	1
5209	1
5210	2
5211	2
5212	8
5213	2
5214	10
5215	3
5216	3
5217	1
5218	3
5219	6
5220	1
5221	1
5222	4
5223	3
5224	2
5225	2
5226	3
5227	5
5228	2
5229	6
5230	8
5231	5
5232	5
5233	3
5234	4
5235	4
5236	6
5237	2
5238	2
5239	4
5240	7
5241	2
5242	3
5243	6
5244	4
5245	3
5246	1
5247	3
5248	6
5249	5
5250	3
5251	2
5252	4
5253	1
5254	4
5255	5
5256	5
5257	1
5258	3
5259	6
5260	3
5261	1
5262	4
5263	4
5264	1
5265	3
5266	2
5267	2
5268	4
5269	3
5270	2
5271	3
5272	3
5273	4
5274	4
5275	3
5276	7
5277	3
5278	2
5279	4
5280	2
5281	3
5282	1
5283	3
5284	4
5285	1
5286	2
5287	5
5288	5
5289	1
5290	1
5291	2
5292	2
5293	2
5294	3
5295	6
5296	5
5297	2
5298	4
5299	2
5300	2
5301	4
5302	2
5303	3
5304	1
5305	4
5306	1
5307	2
5308	0
5309	2
5310	0
5311	2
5312	1
5313	0
5314	5
5315	2
5316	3
5317	5
5318	1
5319	4
5320	2
5321	1
5322	2
5323	1
5324	2
5325	4
5326	2
5327	2
5328	0
5329	3
5330	1
5331	1
5332	4
5333	1
5334	5
5335	4
5336	10
5337	1
5338	4
5339	3
5340	4
5341	6
5342	5
5343	5
5344	3
5345	4
5346	3
5347	4
5348	2
5349	3
5350	0
5351	3
5352	1
5353	3
5354	1
5355	2
5356	4
5357	1
5358	7
5359	5
5360	6
5361	2
5362	0
5363	2
5364	3
5365	2
5366	2
5367	2
5368	1
5369	1
5370	2
5371	0
5372	3
5373	4
5374	3
5375	2
5376	2
5377	3
5378	3
5379	1
5380	4
5381	2
5382	1
5383	2
5384	3
5385	5
5386	3
5387	3
5388	3
5389	0
5390	3
5391	3
5392	3
5393	2
5394	4
5395	4
5396	2
5397	2
5398	2
5399	3
5400	3
5401	2
5402	2
5403	1
5404	5
5405	3
5406	4
5407	1
5408	0
5409	2
5410	3
5411	1
5412	1
5413	4
5414	1
5415	5
5416	2
5417	3
5418	3
5419	1
5420	3
5421	0
5422	3
5423	3
5424	0
5425	4
5426	5
5427	0
5428	0
5429	2
5430	4
5431	4
5432	2
5433	4
5434	2
5435	2
5436	2
5437	1
5438	4
5439	1
5440	2
5441	2
5442	7
5443	1
5444	3
5445	1
5446	1
5447	2
5448	4
5449	3
5450	2
5451	4
5452	6
5453	1
5454	1
5455	2
5456	4
5457	2
5458	4
5459	1
5460	3
5461	6
5462	2
5463	1
5464	4
5465	2
5466	5
5467	1
5468	4
5469	0
5470	4
5471	2
5472	2
5473	1
5474	5
5475	3
5476	4
5477	6
5478	6
5479	1
5480	2
5481	4
5482	4
5483	1
5484	2
5485	3
5486	3
5487	2
5488	4
5489	3
5490	6
5491	2
5492	3
5493	2
5494	0
5495	3
5496	1
5497	0
5498	1
5499	1
5500	2
5501	3
5502	4
5503	5
5504	4
5505	2
5506	1
5507	2
5508	1
5509	2
5510	4
5511	3
5512	2
5513	2
5514	2
5515	3
5516	2
5517	5
5518	4
5519	4
5520	4
5521	6
5522	4
5523	2
5524	4
5525	7
5526	4
5527	2
5528	3
5529	7
5530	2
5531	2
5532	2
5533	4
5534	3
5535	2
5536	4
5537	1
5538	1
5539	1
5540	2
5541	2
5542	3
5543	2
5544	1
5545	2
5546	4
5547	1
5548	3
5549	5
5550	3
5551	2
5552	2
5553	1
5554	3
5555	1
5556	2
5557	5
5558	2
5559	2
5560	2
5561	2
5562	7
5563	0
5564	1
5565	8
5566	3
5567	2
5568	1
5569	1
5570	3
5571	2
5572	4
5573	6
5574	3
5575	2
5576	2
5577	4
5578	1
5579	1
5580	3
5581	1
5582	4
5583	2
5584	1
5585	3
5586	1
5587	1
5588	1
5589	5
5590	3
5591	0
5592	4
5593	2
5594	3
5595	1
5596	4
5597	3
5598	4
5599	4
5600	5
5601	1
5602	3
5603	5
5604	2
5605	2
5606	2
5607	4
5608	2
5609	1
5610	3
5611	1
5612	2
5613	3
5614	1
5615	2
5616	0
5617	3
5618	3
5619	3
5620	1
5621	1
5622	3
5623	2
5624	2
5625	4
5626	3
5627	1
5628	3
5629	2
5630	1
5631	1
5632	4
5633	3
5634	4
5635	4
5636	1
5637	3
5638	1
5639	2
5640	2
5641	0
5642	3
5643	0
5644	2
5645	4
5646	0
5647	1
5648	2
5649	3
5650	0
5651	0
5652	1
5653	3
5654	1
5655	1
5656	2
5657	0
5658	1
5659	1
5660	3
5661	2
5662	2
5663	5
5664	7
5665	3
5666	4
5667	1
5668	4
5669	3
5670	5
5671	0
5672	3
5673	4
5674	4
5675	3
5676	4
5677	2
5678	2
5679	4
5680	1
5681	5
5682	6
5683	4
5684	5
5685	4
5686	4
5687	1
5688	1
5689	1
5690	1
5691	3
5692	4
5693	6
5694	2
5695	1
5696	2
5697	1
5698	5
5699	1
5700	2
5701	4
5702	0
5703	5
5704	1
5705	6
5706	0
5707	2
5708	3
5709	4
5710	1
5711	4
5712	1
5713	3
5714	2
5715	4
5716	4
5717	4
5718	0
5719	6
5720	2
5721	0
5722	4
5723	3
5724	6
5725	0
5726	3
5727	1
5728	1
5729	3
5730	2
5731	2
5732	5
5733	2
5734	4
5735	0
5736	3
5737	5
5738	1
5739	3
5740	3
5741	2
5742	3
5743	3
5744	4
5745	4
5746	3
5747	7
5748	2
5749	5
5750	4
5751	2
5752	3
5753	5
5754	4
5755	3
5756	2
5757	1
5758	3
5759	1
5760	1
5761	5
5762	0
5763	4
5764	0
5765	2
5766	4
5767	5
5768	0
5769	3
5770	2
5771	2
5772	4
5773	3
5774	2
5775	1
5776	2
5777	5
5778	5
5779	3
5780	1
5781	1
5782	8
5783	1
5784	1
5785	3
5786	3
5787	5
5788	3
5789	4
5790	4
5791	2
5792	1
5793	4
5794	2
5795	1
5796	4
5797	2
5798	5
5799	1
5800	5
5801	2
5802	2
5803	1
5804	2
5805	2
5806	7
5807	4
5808	0
5809	2
5810	3
5811	4
5812	1
5813	2
5814	1
5815	3
5816	2
5817	4
5818	1
5819	4
5820	5
5821	2
5822	3
5823	1
5824	5
5825	5
5826	1
5827	4
5828	0
5829	6
5830	3
5831	5
5832	2
5833	1
5834	2
5835	4
5836	1
5837	5
5838	5
5839	2
5840	3
5841	2
5842	2
5843	1
5844	6
5845	1
5846	2
5847	0
5848	3
5849	1
5850	5
5851	2
5852	7
5853	3
5854	0
5855	4
5856	2
5857	2
5858	4
5859	0
5860	3
5861	4
5862	2
5863	2
5864	5
5865	2
5866	0
5867	2
5868	2
5869	1
5870	3
5871	3
5872	4
5873	8
5874	3
5875	4
5876	2
5877	6
5878	1
5879	7
5880	2
5881	1
5882	2
5883	3
5884	4
5885	2
5886	1
5887	1
5888	3
5889	2
5890	3
5891	3
5892	2
5893	4
5894	6
5895	4
5896	4
5897	5
5898	2
5899	4
5900	1
5901	3
5902	0
5903	3
5904	5
5905	2
5906	2
5907	0
5908	0
5909	6
5910	1
5911	2
5912	1
5913	2
5914	6
5915	1
5916	5
5917	2
5918	5
5919	5
5920	3
5921	5
5922	1
5923	1
5924	1
5925	6
5926	3
5927	3
5928	5
5929	3
5930	2
5931	1
5932	3
5933	5
5934	3
5935	3
5936	4
5937	4
5938	2
5939	1
5940	3
5941	2
5942	4
5943	2
5944	5
5945	3
5946	4
5947	2
5948	5
5949	4
5950	5
5951	3
5952	2
5953	4
5954	2
5955	3
5956	1
5957	1
5958	2
5959	6
5960	3
5961	1
5962	4
5963	3
5964	1
5965	2
5966	3
5967	4
5968	7
5969	7
5970	1
5971	3
5972	2
5973	2
5974	4
5975	5
5976	3
5977	4
5978	3
5979	2
5980	1
5981	5
5982	0
5983	8
5984	5
5985	5
5986	3
5987	6
5988	1
5989	3
5990	1
5991	3
5992	3
5993	3
5994	8
5995	2
5996	2
5997	1
5998	4
5999	4
6000	4
6001	4
6002	3
6003	2
6004	5
6005	8
6006	1
6007	3
6008	4
6009	2
6010	2
6011	4
6012	1
6013	4
6014	4
6015	2
6016	3
6017	3
6018	3
6019	3
6020	3
6021	2
6022	3
6023	5
6024	1
6025	5
6026	3
6027	0
6028	7
6029	3
6030	2
6031	3
6032	1
6033	1
6034	3
6035	4
6036	2
6037	2
6038	4
6039	3
6040	2
6041	1
6042	1
6043	1
6044	0
6045	2
6046	2
6047	0
6048	3
6049	2
6050	2
6051	3
6052	2
6053	5
6054	1
6055	3
6056	1
6057	1
6058	1
6059	1
6060	2
6061	2
6062	1
6063	0
6064	3
6065	1
6066	1
6067	1
6068	0
6069	1
6070	2
6071	1
6072	1
6073	1
6074	4
6075	2
6076	0
6077	3
6078	2
6079	0
6080	3
6081	2
6082	0
6083	0
6084	0
6085	1
6086	2
6087	0
6088	0
6089	0
6090	2
6091	3
6092	1
6093	0
6094	2
6095	0
6096	1
6097	3
6098	1
6099	3
6100	5
6101	1
6102	1
6103	2
6104	1
6105	1
6106	0
6107	3
6108	1
6109	0
6110	2
6111	2
6112	2
6113	1
6114	1
6115	1
6116	1
6117	3
6118	1
6119	1
6120	1
6121	0
6122	4
6123	1
6124	3
6125	3
6126	1
6127	2
6128	1
6129	3
6130	1
6131	2
6132	0
6133	1
6134	0
6135	1
6136	2
6137	2
6138	1
6139	0
6140	2
6141	2
6142	0
6143	2
6144	2
6145	3
6146	0
6147	1
6148	1
6149	2
6150	1
6151	0
6152	1
6153	2
6154	2
6155	2
6156	2
6157	3
6158	4
6159	1
6160	0
6161	0
6162	0
6163	0
6164	2
6165	2
6166	4
6167	1
6168	1
6169	0
6170	0
6171	0
6172	1
6173	2
6174	5
6175	3
6176	0
6177	1
6178	1
6179	0
6180	1
6181	1
6182	4
6183	1
6184	2
6185	0
6186	4
6187	0
6188	0
6189	0
6190	2
6191	1
6192	0
6193	1
6194	2
6195	3
6196	1
6197	0
6198	2
6199	1
6200	1
6201	1
6202	0
6203	1
6204	2
6205	2
6206	1
6207	1
6208	2
6209	1
6210	2
6211	0
6212	2
6213	3
6214	1
6215	2
6216	2
6217	3
6218	0
6219	1
6220	3
6221	0
6222	4
6223	0
6224	1
6225	1
6226	1
6227	1
6228	3
6229	1
6230	1
6231	3
6232	0
6233	2
6234	1
6235	2
6236	0
6237	0
6238	2
6239	0
6240	1
6241	0
6242	2
6243	1
6244	0
6245	0
6246	2
6247	0
6248	2
6249	0
6250	0
6251	0
6252	2
6253	2
6254	1
6255	1
6256	1
6257	0
6258	1
6259	0
6260	3
6261	1
6262	1
6263	0
6264	1
6265	0
6266	1
6267	1
6268	0
6269	0
6270	1
6271	1
6272	0
6273	0
6274	0
6275	0
6276	0
6277	1
6278	1
6279	0
6280	0
6281	0
6282	1
6283	2
6284	0
6285	0
6286	3
6287	3
6288	1
6289	2
6290	0
6291	0
6292	0
6293	1
6294	1
6295	0
6296	1
6297	1
6298	0
6299	0
6300	0
6301	0
6302	0
6303	0
6304	0
6305	0
6306	2
6307	0
6308	0
6309	0
6310	0
6311	0
6312	1
6313	2
6314	0
6315	0
6316	0
6317	1
6318	0
6319	1
6320	0
6321	0
6322	0
6323	0
6324	0
6325	1
6326	1
6327	0
6328	2
6329	0
6330	0
6331	0
6332	1
6333	0
6334	0
6335	0
6336	1
6337	0
6338	1
6339	0
6340	1
6341	0
6342	0
6343	0
6344	0
6345	0
6346	0
6347	1
6348	0
6349	0
6350	0
6351	0
6352	2
6353	0
6354	0
6355	1
6356	0
6357	1
6358	1
6359	0
6360	0
6361	1
6362	0
6363	0
6364	2
6365	0
6366	0
6367	0
6368	0
6369	1
6370	1
6371	2
6372	2
6373	1
6374	0
6375	0
6376	1
6377	1
6378	0
6379	0
6380	1
6381	0
6382	0
6383	0
6384	0
6385	0
6386	1
6387	0
6388	0
6389	0
6390	1
6391	0
6392	1
6393	0
6394	1
6395	0
6396	1
6397	0
6398	0
6399	1
6400	0
6401	1
6402	1
6403	0
6404	0
6405	2
6406	1
6407	1
6408	1
6409	0
6410	0
6411	0
6412	1
6413	1
6414	0
6415	2
6416	0
6417	0
6418	1
6419	1
6420	1
6421	1
6422	0
6423	0
6424	0
6425	2
6426	0
6427	2
6428	0
6429	0
6430	1
6431	0
6432	0
6433	1
6434	1
6435	0
6436	0
6437	0
6438	0
6439	1
6440	0
6441	0
6442	0
6443	0
6444	0
6445	0
6446	1
6447	0
6448	0
6449	0
6450	0
6451	0
6452	1
6453	0
6454	0
6455	0
6456	0
6457	0
6458	0
6459	0
6460	0
6461	1
6462	0
6463	1
6464	0
6465	1
6466	0
6467	0
6468	1
6469	1
6470	0
6471	0
6472	0
6473	0
6474	0
6475	0
6476	0
6477	0
6478	0
6479	1
6480	0
6481	0
6482	1
6483	0
6484	0
6485	0
6486	1
6487	1
6488	0
6489	0
6490	0
6491	1
6492	1
6493	0
6494	0
6495	0
6496	0
6497	0
6498	0
6499	0
6500	0
6501	1
6502	0
6503	0
6504	0
6505	1
6506	0
6507	0
6508	0
6509	0
6510	1
6511	0
6512	0
6513	1
6514	0
6515	0
6516	1
6517	0
6518	2
6519	0
6520	1
6521	0
6522	0
6523	0
6524	0
6525	0
6526	0
6527	0
6528	0
6529	0
6530	0
6531	0
6532	0
6533	0
6534	0
6535	1
6536	0
6537	0
6538	1
6539	1
6540	0
6541	0
6542	0
6543	0
6544	0
6545	0
6546	0
6547	0
6548	2
6549	0
6550	0
6551	1
6552	0
6553	0
6554	4
6555	5
6556	16
6557	24
6558	46
6559	74
6560	80
6561	56
6562	94
6563	66
6564	37
6565	33
6566	10
6567	8
6568	1
6569	0
6570	1
6571	0
6572	0
6573	0
6574	0
6575	1
6576	0
6577	0
6578	0
6579	0
6580	1
6581	0
6582	0
6583	0
6584	0
6585	0
6586	0
6587	0
6588	0
6589	0
6590	0
6591	0
6592	0
6593	0
6594	0
6595	0
6596	0
6597	0
6598	1
6599	0
6600	0
6601	0
6602	0
6603	0
6604	0
6605	0
6606	0
6607	0
6608	0
6609	0
6610	0
6611	0
6612	0
6613	0
6614	0
6615	0
6616	0
6617	0
6618	0
6619	1
6620	0
6621	0
6622	0
6623	0
6624	0
6625	0
6626	0
6627	0
6628	0
6629	1
6630	0
6631	0
6632	0
6633	0
6634	1
6635	0
6636	0
6637	0
6638	0
6639	0
6640	0
6641	0
6642	0
6643	0
6644	0
6645	0
6646	0
6647	0
6648	0
6649	0
6650	0
6651	0
6652	0
6653	0
6654	0
6655	0
6656	0
6657	0
6658	0
6659	0
6660	0
6661	0
6662	0
6663	0
6664	0
6665	0
6666	0
6667	0
6668	0
6669	0
6670	0
6671	0
6672	0
6673	0
6674	1
6675	0
6676	0
6677	0
6678	0
6679	0
6680	0
6681	0
6682	0
6683	0
6684	0
6685	0
6686	0
6687	0
6688	0
6689	0
6690	0
6691	0
6692	0
6693	0
6694	0
6695	0
6696	0
6697	0
6698	0
6699	0
6700	0
6701	0
6702	0
6703	0
6704	0
6705	0
6706	0
6707	0
6708	0
6709	1
6710	0
6711	0
6712	0
6713	0
6714	0
6715	0
6716	0
6717	0
6718	0
6719	0
6720	0
6721	0
6722	0
6723	0
6724	0
6725	0
6726	0
6727	0
6728	0
6729	0
6730	0
6731	0
6732	0
6733	0
6734	0
6735	0
6736	0
6737	0
6738	0
6739	0
6740	0
6741	0
6742	0
6743	0
6744	0
6745	0
6746	0
6747	0
6748	0
6749	0
6750	0
6751	0
6752	0
6753	0
6754	0
6755	0
6756	0
6757	0
6758	0
6759	0
6760	0
6761	0
6762	0
6763	1
6764	1
6765	0
6766	0
6767	0
6768	0
6769	0
6770	0
6771	0
6772	0
6773	0
6774	0
6775	0
6776	0
6777	0
6778	0
6779	0
6780	0
6781	0
6782	0
6783	0
6784	0
6785	0
6786	0
6787	0
6788	0
6789	0
6790	0
6791	0
6792	0
6793	0
6794	0
6795	0
6796	0
6797	0
6798	0
6799	0
6800	0
6801	0
6802	0
6803	0
6804	0
6805	1
6806	0
6807	0
6808	0
6809	0
6810	0
6811	0
6812	0
6813	0
6814	0
6815	0
6816	0
6817	1
6818	0
6819	0
6820	0
6821	0
6822	0
6823	0
6824	0
6825	0
6826	0
6827	0
6828	0
6829	0
6830	0
6831	0
6832	0
6833	0
6834	0
6835	0
6836	0
6837	0
6838	0
6839	0
6840	1
6841	0
6842	1
6843	1
6844	3
6845	0
6846	1
6847	0
6848	0
6849	1
6850	0
6851	1
6852	0
6853	0
6854	0
6855	0
6856	0
6857	0
6858	0
6859	0
6860	0
6861	0
6862	0
6863	0
6864	0
6865	0
6866	0
6867	0
6868	0
6869	0
6870	0
6871	0
6872	0
6873	0
6874	0
6875	0
6876	0
6877	0
6878	0
6879	0
6880	0
6881	0
6882	0
6883	0
6884	0
6885	0
6886	0
6887	0
6888	0
6889	0
6890	0
6891	0
6892	0
6893	0
6894	1
6895	0
6896	0
6897	0
6898	0
6899	0
6900	0
6901	0
6902	0
6903	0
6904	0
6905	0
6906	0
6907	0
6908	0
6909	0
6910	1
6911	0
6912	0
6913	0
6914	0
6915	0
6916	0
6917	0
6918	0
6919	0
6920	0
6921	0
6922	0
6923	0
6924	0
6925	0
6926	0
6927	0
6928	0
6929	0
6930	0
6931	0
6932	0
6933	0
6934	0
6935	0
6936	0
6937	0
6938	0
6939	0
6940	0
6941	0
6942	0
6943	0
6944	0
6945	0
6946	0
6947	0
6948	0
6949	0
6950	1
6951	0
6952	0
6953	0
6954	0
6955	0
6956	0
6957	0
6958	0
6959	0
6960	0
6961	0
6962	0
6963	0
6964	0
6965	0
6966	1
6967	0
6968	1
6969	0
6970	2
6971	0
6972	0
6973	0
6974	1
6975	1
6976	0
6977	0
6978	0
6979	0
6980	0
6981	0
6982	0
6983	0
6984	0
6985	0
6986	0
6987	0
6988	0
6989	1
6990	0
6991	0
6992	0
6993	0
6994	0
6995	0
6996	0
6997	0
6998	0
6999	0
7000	0
7001	0
7002	0
7003	0
7004	0
7005	0
7006	0
7007	0
7008	0
7009	0
7010	0
7011	0
7012	0
7013	0
7014	0
7015	0
7016	0
7017	0
7018	0
7019	0
7020	0
7021	0
7022	0
7023	0
7024	0
7025	0
7026	0
7027	0
7028	0
7029	0
7030	0
7031	0
7032	0
7033	0
7034	1
7035	0
7036	0
7037	0
7038	0
7039	0
7040	0
7041	0
7042	0
7043	0
7044	0
7045	0
7046	0
7047	0
7048	0
7049	0
7050	0
7051	0
7052	0
7053	0
7054	0
7055	0
7056	0
7057	0
7058	0
7059	0
7060	0
7061	0
7062	0
7063	0
7064	0
7065	0
7066	0
7067	0
7068	0
7069	0
7070	0
7071	0
7072	0
7073	0
7074	0
7075	0
7076	0
7077	0
7078	0
7079	1
7080	0
7081	0
7082	0
7083	0
7084	0
7085	0
7086	0
7087	0
7088	0
7089	0
7090	0
7091	0
7092	0
7093	0
7094	0
7095	1
7096	0
7097	0
7098	0
7099	0
7100	0
7101	0
7102	0
7103	0
7104	0
7105	0
7106	0
7107	0
7108	0
7109	0
7110	0
7111	0
7112	0
7113	0
7114	0
7115	0
7116	0
7117	0
7118	0
7119	0
7120	0
7121	0
7122	0
7123	0
7124	0
7125	0
7126	0
7127	0
7128	0
7129	0
7130	0
7131	0
7132	0
7133	0
7134	0
7135	0
7136	0
7137	0
7138	0
7139	0
7140	0
7141	0
7142	0
7143	0
7144	0
7145	0
7146	0
7147	0
7148	0
7149	0
7150	0
7151	0
7152	0
7153	0
7154	0
7155	0
7156	0
7157	0
7158	0
7159	0
7160	0
7161	0
7162	0
7163	0
7164	0
7165	0
7166	0
7167	0
7168	0
7169	0
7170	0
7171	0
7172	0
7173	0
7174	0
7175	0
7176	0
7177	0
7178	0
7179	0
7180	0
7181	0
7182	0
7183	0
7184	0
7185	0
7186	0
7187	0
7188	0
7189	0
7190	0
7191	0
7192	0
7193	0
7194	0
7195	0
7196	0
7197	0
7198	0
7199	0
7200	0
7201	0
7202	0
7203	0
7204	0
7205	0
7206	0
7207	0
7208	0
7209	0
7210	0
7211	0
7212	0
7213	0
7214	0
7215	0
7216	0
7217	0
7218	0
7219	0
7220	0
7221	0
7222	0
7223	0
7224	0
7225	0
7226	0
7227	0
7228	0
7229	0
7230	0
7231	0
7232	0
7233	0
7234	0
7235	0
7236	0
7237	0
7238	0
7239	1
7240	0
7241	0
7242	0
7243	0
7244	0
7245	0
7246	0
7247	0
7248	0
7249	0
7250	1
7251	0
7252	0
7253	1
7254	0
7255	0
7256	0
7257	0
7258	0
7259	0
7260	0
7261	0
7262	0
7263	0
7264	0
7265	0
7266	0
7267	0
7268	0
7269	1
7270	0
7271	0
7272	0
7273	0
7274	0
7275	0
7276	0
7277	0
7278	0
7279	0
7280	0
7281	0
7282	0
7283	0
7284	0
7285	0
7286	1
7287	0
7288	0
7289	0
7290	0
7291	0
7292	1
7293	0
7294	0
7295	0
7296	0
7297	0
7298	0
7299	0
7300	0
7301	0
7302	0
7303	0
7304	0
7305	0
7306	0
7307	0
7308	0
7309	0
7310	0
7311	0
7312	0
7313	0
7314	0
7315	0
7316	0
7317	0
7318	0
7319	0
7320	0
7321	0
7322	0
7323	0
7324	0
7325	0
7326	0
7327	0
7328	0
7329	0
7330	0
7331	0
7332	0
7333	0
7334	0
7335	0
7336	0
7337	0
7338	0
7339	0
7340	0
7341	0
7342	0
7343	0
7344	0
7345	0
7346	0
7347	0
7348	0
7349	0
7350	0
7351	0
7352	0
7353	0
7354	0
7355	0
7356	0
7357	0
7358	0
7359	0
7360	0
7361	0
7362	0
7363	0
7364	0
7365	0
7366	0
7367	0
7368	0
7369	0
7370	0
7371	0
7372	0
7373	1
7374	0
7375	0
7376	0
7377	0
7378	0
7379	0
7380	0
7381	0
7382	0
7383	0
7384	0
7385	0
7386	0
7387	0
7388	0
7389	0
7390	0
7391	0
7392	0
7393	0
7394	0
7395	0
7396	0
7397	0
7398	0
7399	0
7400	0
7401	0
7402	1
7403	0
7404	0
7405	0
7406	0
7407	0
7408	0
7409	0
7410	0
7411	0
7412	0
7413	0
7414	0
7415	0
7416	0
7417	0
7418	0
7419	0
7420	0
7421	0
7422	0
7423	0
7424	0
7425	0
7426	0
7427	0
7428	0
7429	0
7430	0
7431	0
7432	0
7433	0
7434	0
7435	0
7436	0
7437	0
7438	0
7439	0
7440	0
7441	0
7442	0
7443	0
7444	0
7445	0
7446	0
7447	0
7448	0
7449	0
7450	0
7451	0
7452	0
7453	0
7454	1
7455	0
7456	0
7457	0
7458	0
7459	0
7460	0
7461	0
7462	0
7463	0
7464	0
7465	0
7466	0
7467	0
7468	0
7469	0
7470	0
7471	0
7472	0
7473	0
7474	0
7475	0
7476	0
7477	0
7478	0
7479	0
7480	0
7481	0
7482	0
7483	0
7484	0
7485	0
7486	0
7487	0
7488	0
7489	0
7490	0
7491	0
7492	0
7493	0
7494	0
7495	0
7496	0
7497	0
7498	0
7499	0
7500	0
7501	0
7502	0
7503	0
7504	0
7505	1
7506	0
7507	1
7508	0
7509	0
7510	0
7511	0
7512	0
7513	0
7514	0
7515	0
7516	0
7517	0
7518	0
7519	0
7520	0
7521	1
7522	0
7523	0
7524	0
7525	0
7526	0
7527	0
7528	0
7529	0
7530	1
7531	0
7532	0
7533	0
7534	0
7535	0
7536	0
7537	0
7538	0
7539	0
7540	0
7541	0
7542	0
7543	0
7544	0
7545	0
7546	0
7547	0
7548	0
7549	0
7550	0
7551	0
7552	0
7553	0
7554	0
7555	0
7556	0
7557	0
7558	0
7559	0
7560	0
7561	0
7562	0
7563	0
7564	0
7565	0
7566	0
7567	0
7568	0
7569	0
7570	0
7571	0
7572	0
7573	0
7574	0
7575	0
7576	0
7577	0
7578	0
7579	0
7580	0
7581	0
7582	0
7583	0
7584	0
7585	0
7586	0
7587	0
7588	0
7589	0
7590	0
7591	0
7592	0
7593	0
7594	0
7595	0
7596	0
7597	0
7598	0
7599	0
7600	0
7601	0
7602	0
7603	0
7604	0
7605	0
7606	0
7607	0
7608	0
7609	0
7610	0
7611	0
7612	0
7613	0
7614	0
7615	0
7616	0
7617	0
7618	0
7619	0
7620	0
7621	0
7622	0
7623	0
7624	0
7625	0
7626	0
7627	0
7628	0
7629	0
7630	1
7631	0
7632	0
7633	0
7634	0
7635	0
7636	0
7637	0
7638	0
7639	0
7640	0
7641	0
7642	0
7643	0
7644	0
7645	0
7646	0
7647	0
7648	0
7649	0
7650	0
7651	0
7652	0
7653	0
7654	0
7655	0
7656	0
7657	0
7658	0
7659	0
7660	0
7661	0
7662	0
7663	1
7664	0
7665	0
7666	0
7667	0
7668	0
7669	0
7670	0
7671	0
7672	0
7673	0
7674	0
7675	0
7676	0
7677	0
7678	0
7679	0
7680	0
7681	0
7682	0
7683	0
7684	0
7685	0
7686	0
7687	0
7688	0
7689	0
7690	0
7691	1
7692	0
7693	0
7694	0
7695	0
7696	0
7697	0
7698	1
7699	0
7700	0
7701	0
7702	0
7703	0
7704	0
7705	0
7706	0
7707	0
7708	0
7709	0
7710	0
7711	0
7712	0
7713	0
7714	0
7715	0
7716	0
7717	0
7718	0
7719	0
7720	0
7721	0
7722	0
7723	0
7724	0
7725	0
7726	0
7727	0
7728	0
7729	0
7730	0
7731	0
7732	0
7733	0
7734	0
7735	0
7736	0
7737	0
7738	0
7739	0
7740	0
7741	0
7742	0
7743	0
7744	0
7745	0
7746	0
7747	0
7748	0
7749	0
7750	0
7751	0
7752	0
7753	0
7754	0
7755	0
7756	0
7757	0
7758	0
7759	0
7760	0
7761	0
7762	0
7763	0
7764	0
7765	0
7766	0
7767	0
7768	0
7769	0
7770	0
7771	0
7772	0
7773	0
7774	0
7775	0
7776	0
7777	0
7778	0
7779	0
7780	0
7781	0
7782	0
7783	0
7784	0
7785	0
7786	0
7787	0
7788	0
7789	0
7790	0
7791	0
7792	0
7793	0
7794	0
7795	0
7796	0
7797	0
7798	0
7799	0
7800	0
7801	0
7802	0
7803	0
7804	0
7805	0
7806	0
7807	0
7808	0
7809	0
7810	0
7811	0
7812	0
7813	0
7814	0
7815	0
7816	0
7817	0
7818	0
7819	0
7820	0
7821	0
7822	0
7823	0
7824	0
7825	0
7826	0
7827	0
7828	0
7829	0
7830	0
7831	0
7832	0
7833	0
7834	0
7835	0
7836	0
7837	0
7838	0
7839	0
7840	0
7841	0
7842	0
7843	0
7844	0
7845	0
7846	0
7847	0
7848	0
7849	0
7850	0
7851	0
7852	0
7853	0
7854	0
7855	0
7856	0
7857	0
7858	0
7859	0
7860	0
7861	0
7862	0
7863	0
7864	0
7865	1
7866	0
7867	0
7868	0
7869	0
7870	0
7871	0
7872	0
7873	0
7874	0
7875	0
7876	0
7877	0
7878	0
7879	0
7880	0
7881	0
7882	0
7883	0
7884	0
7885	0
7886	0
7887	0
7888	0
7889	0
7890	0
7891	0
7892	0
7893	0
7894	0
7895	0
7896	0
7897	0
7898	0
7899	0
7900	0
7901	0
7902	0
7903	0
7904	0
7905	0
7906	0
7907	0
7908	0
7909	0
7910	0
7911	0
7912	0
7913	0
7914	0
7915	0
7916	0
7917	0
7918	0
7919	0
7920	0
7921	0
7922	0
7923	0
7924	0
7925	0
7926	0
7927	0
7928	0
7929	0
7930	0
7931	0
7932	0
7933	0
7934	1
7935	0
7936	0
7937	0
7938	0
7939	0
7940	0
7941	0
7942	0
7943	0
7944	0
7945	0
7946	0
7947	0
7948	0
7949	0
7950	0
7951	0
7952	0
7953	0
7954	0
7955	0
7956	0
7957	0
7958	0
7959	0
7960	0
7961	0
7962	0
7963	0
7964	0
7965	0
7966	0
7967	0
7968	0
7969	0
7970	0
7971	0
7972	0
7973	0
7974	0
7975	0
7976	0
7977	0
7978	0
7979	0
7980	0
7981	0
7982	0
7983	0
7984	0
7985	1
7986	0
7987	0
7988	0
7989	0
7990	0
7991	0
7992	0
7993	0
7994	0
7995	0
7996	0
7997	0
7998	0
7999	0
8000	0
8001	0
8002	0
8003	0
8004	0
8005	0
8006	0
8007	0
8008	0
8009	0
8010	0
8011	0
8012	0
8013	0
8014	0
8015	0
8016	0
8017	0
8018	0
8019	0
8020	0
8021	0
8022	0
8023	0
8024	0
8025	0
8026	0
8027	0
8028	0
8029	0
8030	0
8031	0
8032	0
8033	0
8034	0
8035	0
8036	0
8037	0
8038	0
8039	0
8040	0
8041	0
8042	0
8043	0
8044	0
8045	0
8046	0
8047	0
8048	0
8049	0
8050	0
8051	0
8052	0
8053	0
8054	0
8055	0
8056	0
8057	0
8058	0
8059	0
8060	0
8061	0
8062	0
8063	0
8064	0
8065	0
8066	0
8067	0
8068	0
8069	0
8070	0
8071	0
8072	0
8073	0
8074	0
8075	0
8076	0
8077	0
8078	0
8079	0
8080	0
8081	0
8082	0
8083	0
8084	0
8085	0
8086	0
8087	0
8088	0
8089	0
8090	0
8091	0
8092	0
8093	0
8094	0
8095	0
8096	0
8097	0
8098	0
8099	0
8100	0
8101	0
8102	0
8103	0
8104	0
8105	0
8106	0
8107	0
8108	0
8109	0
8110	0
8111	0
8112	0
8113	0
8114	0
8115	0
8116	0
8117	0
8118	0
8119	0
8120	0
8121	0
8122	0
8123	0
8124	0
8125	0
8126	0
8127	0
8128	0
8129	0
8130	0
8131	0
8132	0
8133	0
8134	0
8135	0
8136	0
8137	0
8138	0
8139	0
8140	0
8141	0
8142	0
8143	0
8144	0
8145	0
8146	0
8147	0
8148	0
8149	0
8150	0
8151	0
8152	0
8153	0
8154	0
8155	0
8156	0
8157	0
8158	0
8159	0
8160	0
8161	0
8162	0
8163	0
8164	0
8165	0
8166	0
8167	0
8168	0
8169	0
8170	0
8171	0
8172	0
8173	0
8174	0
8175	0
8176	0
8177	0
8178	0
8179	0
8180	0
8181	0
8182	0
8183	0
8184	0
8185	0
8186	0
8187	0
8188	0
8189	0
8190	0
8191	0
