0	0
1	0
2	0
3	0
4	0
5	0
6	0
7	0
8	0
9	0
10	0
11	0
12	0
13	0
14	0
15	0
16	0
17	0
18	0
19	0
20	0
21	0
22	0
23	0
24	0
25	0
26	0
27	0
28	0
29	0
30	0
31	0
32	0
33	0
34	0
35	0
36	0
37	0
38	0
39	0
40	0
41	0
42	0
43	0
44	0
45	0
46	0
47	0
48	0
49	0
50	0
51	0
52	0
53	0
54	0
55	0
56	0
57	0
58	0
59	0
60	0
61	0
62	0
63	0
64	0
65	0
66	0
67	0
68	0
69	0
70	0
71	0
72	0
73	0
74	0
75	0
76	0
77	0
78	0
79	0
80	0
81	0
82	0
83	0
84	0
85	0
86	0
87	0
88	0
89	0
90	0
91	0
92	0
93	0
94	0
95	0
96	0
97	0
98	0
99	0
100	0
101	0
102	0
103	0
104	0
105	0
106	0
107	0
108	0
109	0
110	0
111	0
112	0
113	0
114	0
115	0
116	0
117	0
118	65
119	273
120	474
121	643
122	600
123	602
124	633
125	632
126	618
127	602
128	645
129	658
130	601
131	610
132	570
133	600
134	603
135	582
136	575
137	592
138	564
139	641
140	593
141	561
142	568
143	565
144	547
145	584
146	515
147	601
148	537
149	580
150	558
151	542
152	537
153	526
154	529
155	523
156	532
157	564
158	544
159	556
160	535
161	551
162	515
163	547
164	529
165	548
166	526
167	524
168	502
169	514
170	551
171	486
172	507
173	517
174	552
175	510
176	507
177	530
178	469
179	539
180	517
181	481
182	541
183	503
184	526
185	527
186	526
187	514
188	508
189	530
190	500
191	496
192	508
193	458
194	488
195	468
196	484
197	530
198	469
199	479
200	460
201	499
202	499
203	498
204	484
205	475
206	509
207	535
208	520
209	489
210	462
211	492
212	473
213	469
214	521
215	500
216	483
217	432
218	496
219	465
220	486
221	464
222	485
223	475
224	448
225	502
226	418
227	492
228	495
229	487
230	470
231	482
232	455
233	526
234	431
235	470
236	485
237	466
238	488
239	479
240	530
241	449
242	506
243	511
244	447
245	481
246	475
247	449
248	471
249	508
250	518
251	466
252	469
253	484
254	492
255	502
256	487
257	480
258	449
259	466
260	475
261	443
262	458
263	464
264	459
265	488
266	452
267	488
268	476
269	504
270	462
271	441
272	485
273	465
274	454
275	516
276	497
277	451
278	492
279	504
280	479
281	457
282	507
283	463
284	490
285	487
286	519
287	470
288	473
289	480
290	483
291	467
292	501
293	472
294	546
295	483
296	516
297	457
298	506
299	498
300	448
301	477
302	467
303	496
304	424
305	428
306	483
307	460
308	471
309	442
310	468
311	483
312	450
313	474
314	472
315	463
316	451
317	469
318	478
319	442
320	503
321	501
322	463
323	482
324	488
325	425
326	469
327	461
328	463
329	482
330	488
331	468
332	463
333	466
334	472
335	440
336	454
337	514
338	497
339	512
340	458
341	469
342	508
343	523
344	464
345	408
346	487
347	482
348	461
349	482
350	489
351	435
352	437
353	500
354	496
355	446
356	462
357	464
358	466
359	500
360	483
361	502
362	477
363	468
364	460
365	468
366	478
367	475
368	462
369	477
370	489
371	492
372	499
373	527
374	512
375	500
376	502
377	488
378	474
379	513
380	574
381	614
382	759
383	950
384	999
385	962
386	735
387	553
388	535
389	449
390	459
391	454
392	466
393	487
394	491
395	461
396	524
397	507
398	479
399	485
400	510
401	510
402	491
403	466
404	488
405	482
406	472
407	497
408	488
409	529
410	491
411	448
412	465
413	441
414	484
415	483
416	455
417	483
418	500
419	499
420	518
421	550
422	588
423	526
424	501
425	483
426	492
427	502
428	469
429	508
430	466
431	442
432	502
433	458
434	456
435	482
436	474
437	516
438	510
439	457
440	491
441	486
442	515
443	461
444	453
445	482
446	473
447	479
448	496
449	514
450	547
451	464
452	475
453	529
454	485
455	513
456	518
457	486
458	471
459	485
460	514
461	493
462	534
463	459
464	472
465	497
466	511
467	488
468	456
469	484
470	525
471	527
472	477
473	456
474	451
475	505
476	480
477	485
478	459
479	499
480	459
481	489
482	508
483	488
484	480
485	494
486	532
487	501
488	533
489	514
490	509
491	505
492	458
493	506
494	501
495	515
496	516
497	517
498	519
499	470
500	470
501	498
502	482
503	495
504	474
505	512
506	466
507	550
508	515
509	504
510	540
511	527
512	555
513	496
514	554
515	504
516	552
517	573
518	497
519	534
520	550
521	514
522	561
523	536
524	531
525	556
526	499
527	573
528	526
529	516
530	535
531	526
532	519
533	544
534	519
535	541
536	535
537	537
538	607
539	551
540	569
541	555
542	572
543	612
544	532
545	557
546	565
547	582
548	614
549	681
550	677
551	584
552	632
553	615
554	615
555	608
556	564
557	637
558	639
559	621
560	641
561	621
562	585
563	644
564	613
565	566
566	607
567	599
568	640
569	642
570	661
571	641
572	613
573	642
574	616
575	622
576	644
577	616
578	649
579	610
580	619
581	607
582	605
583	614
584	566
585	622
586	604
587	561
588	614
589	563
590	582
591	617
592	608
593	554
594	530
595	587
596	566
597	568
598	597
599	585
600	584
601	557
602	548
603	568
604	592
605	562
606	563
607	558
608	571
609	537
610	534
611	584
612	562
613	584
614	626
615	585
616	601
617	622
618	652
619	628
620	611
621	559
622	614
623	628
624	600
625	583
626	618
627	610
628	605
629	603
630	621
631	686
632	600
633	659
634	599
635	578
636	602
637	625
638	644
639	612
640	663
641	590
642	578
643	576
644	623
645	606
646	626
647	548
648	644
649	549
650	646
651	549
652	607
653	623
654	587
655	559
656	610
657	577
658	573
659	582
660	574
661	529
662	542
663	589
664	571
665	547
666	540
667	570
668	562
669	541
670	539
671	546
672	573
673	548
674	553
675	533
676	526
677	582
678	553
679	547
680	516
681	520
682	532
683	488
684	525
685	567
686	520
687	517
688	542
689	510
690	553
691	496
692	534
693	489
694	516
695	516
696	511
697	489
698	524
699	515
700	502
701	517
702	529
703	545
704	544
705	486
706	476
707	496
708	509
709	500
710	506
711	515
712	485
713	529
714	475
715	475
716	490
717	501
718	498
719	515
720	540
721	482
722	521
723	533
724	519
725	491
726	530
727	502
728	477
729	514
730	536
731	485
732	517
733	498
734	491
735	487
736	458
737	457
738	450
739	444
740	513
741	482
742	487
743	483
744	502
745	511
746	508
747	497
748	513
749	476
750	475
751	481
752	484
753	477
754	499
755	492
756	509
757	495
758	456
759	507
760	522
761	506
762	507
763	489
764	506
765	500
766	540
767	422
768	518
769	483
770	497
771	500
772	459
773	462
774	489
775	486
776	498
777	510
778	483
779	483
780	475
781	472
782	465
783	511
784	475
785	458
786	504
787	476
788	463
789	508
790	507
791	477
792	468
793	510
794	487
795	428
796	458
797	470
798	491
799	449
800	505
801	477
802	480
803	451
804	498
805	492
806	489
807	463
808	480
809	503
810	468
811	473
812	464
813	457
814	474
815	456
816	473
817	495
818	461
819	446
820	499
821	481
822	447
823	460
824	463
825	487
826	467
827	442
828	459
829	458
830	484
831	489
832	452
833	475
834	447
835	457
836	459
837	444
838	456
839	484
840	458
841	462
842	419
843	471
844	494
845	465
846	466
847	451
848	453
849	433
850	447
851	460
852	458
853	476
854	501
855	477
856	443
857	455
858	456
859	411
860	466
861	450
862	459
863	467
864	452
865	473
866	492
867	472
868	430
869	511
870	486
871	494
872	521
873	518
874	468
875	436
876	488
877	425
878	466
879	484
880	422
881	446
882	478
883	462
884	485
885	423
886	463
887	468
888	460
889	461
890	514
891	429
892	495
893	466
894	475
895	464
896	476
897	481
898	452
899	498
900	449
901	447
902	488
903	460
904	474
905	479
906	463
907	473
908	434
909	490
910	467
911	474
912	489
913	469
914	474
915	483
916	441
917	462
918	459
919	465
920	435
921	493
922	453
923	479
924	463
925	474
926	435
927	416
928	477
929	464
930	481
931	464
932	470
933	464
934	413
935	483
936	471
937	492
938	438
939	475
940	471
941	478
942	422
943	480
944	451
945	447
946	468
947	480
948	428
949	425
950	433
951	484
952	405
953	435
954	427
955	421
956	450
957	420
958	440
959	429
960	410
961	442
962	441
963	460
964	442
965	390
966	442
967	444
968	424
969	423
970	423
971	418
972	432
973	420
974	404
975	434
976	402
977	462
978	400
979	408
980	416
981	444
982	396
983	419
984	414
985	410
986	430
987	457
988	411
989	419
990	416
991	391
992	402
993	442
994	375
995	409
996	415
997	410
998	413
999	396
1000	405
1001	397
1002	407
1003	375
1004	426
1005	427
1006	415
1007	425
1008	403
1009	409
1010	401
1011	397
1012	423
1013	439
1014	384
1015	401
1016	423
1017	392
1018	418
1019	432
1020	408
1021	408
1022	402
1023	437
1024	417
1025	413
1026	416
1027	426
1028	392
1029	406
1030	394
1031	381
1032	396
1033	474
1034	401
1035	393
1036	433
1037	412
1038	398
1039	413
1040	381
1041	399
1042	422
1043	405
1044	379
1045	441
1046	413
1047	383
1048	404
1049	404
1050	445
1051	385
1052	398
1053	399
1054	432
1055	411
1056	384
1057	392
1058	382
1059	370
1060	418
1061	385
1062	441
1063	403
1064	395
1065	358
1066	397
1067	401
1068	406
1069	425
1070	395
1071	394
1072	403
1073	420
1074	431
1075	401
1076	426
1077	385
1078	409
1079	402
1080	395
1081	392
1082	388
1083	383
1084	381
1085	431
1086	416
1087	442
1088	397
1089	445
1090	443
1091	376
1092	439
1093	420
1094	387
1095	404
1096	409
1097	446
1098	416
1099	411
1100	400
1101	399
1102	406
1103	400
1104	437
1105	400
1106	425
1107	431
1108	426
1109	428
1110	364
1111	443
1112	393
1113	432
1114	410
1115	411
1116	423
1117	439
1118	429
1119	406
1120	435
1121	394
1122	391
1123	399
1124	415
1125	417
1126	425
1127	407
1128	368
1129	380
1130	421
1131	424
1132	445
1133	428
1134	404
1135	399
1136	455
1137	452
1138	396
1139	421
1140	397
1141	389
1142	411
1143	407
1144	450
1145	391
1146	396
1147	433
1148	445
1149	403
1150	439
1151	403
1152	442
1153	420
1154	398
1155	434
1156	435
1157	390
1158	448
1159	399
1160	434
1161	430
1162	462
1163	461
1164	476
1165	442
1166	419
1167	429
1168	458
1169	436
1170	447
1171	428
1172	418
1173	434
1174	470
1175	422
1176	438
1177	447
1178	404
1179	475
1180	406
1181	414
1182	424
1183	463
1184	446
1185	427
1186	435
1187	435
1188	437
1189	393
1190	438
1191	490
1192	461
1193	459
1194	433
1195	473
1196	471
1197	418
1198	450
1199	419
1200	439
1201	492
1202	429
1203	468
1204	465
1205	449
1206	452
1207	425
1208	478
1209	458
1210	474
1211	433
1212	457
1213	452
1214	469
1215	463
1216	456
1217	483
1218	499
1219	485
1220	458
1221	445
1222	439
1223	451
1224	428
1225	453
1226	453
1227	459
1228	503
1229	456
1230	481
1231	445
1232	433
1233	500
1234	457
1235	494
1236	451
1237	462
1238	449
1239	478
1240	455
1241	470
1242	473
1243	487
1244	515
1245	489
1246	462
1247	505
1248	504
1249	482
1250	440
1251	510
1252	472
1253	510
1254	505
1255	490
1256	463
1257	506
1258	483
1259	485
1260	492
1261	486
1262	510
1263	465
1264	498
1265	458
1266	514
1267	510
1268	499
1269	525
1270	476
1271	529
1272	492
1273	461
1274	464
1275	507
1276	490
1277	503
1278	453
1279	498
1280	491
1281	516
1282	522
1283	512
1284	492
1285	539
1286	496
1287	464
1288	535
1289	489
1290	443
1291	477
1292	445
1293	509
1294	494
1295	486
1296	493
1297	472
1298	483
1299	472
1300	483
1301	442
1302	432
1303	429
1304	441
1305	424
1306	382
1307	384
1308	387
1309	393
1310	390
1311	374
1312	380
1313	362
1314	368
1315	330
1316	373
1317	361
1318	359
1319	359
1320	378
1321	363
1322	360
1323	316
1324	354
1325	363
1326	385
1327	288
1328	335
1329	347
1330	352
1331	322
1332	338
1333	303
1334	330
1335	344
1336	391
1337	341
1338	304
1339	334
1340	340
1341	333
1342	363
1343	333
1344	324
1345	341
1346	328
1347	342
1348	293
1349	336
1350	329
1351	333
1352	322
1353	320
1354	316
1355	300
1356	320
1357	291
1358	311
1359	302
1360	327
1361	321
1362	324
1363	325
1364	300
1365	289
1366	313
1367	323
1368	309
1369	314
1370	292
1371	330
1372	326
1373	338
1374	317
1375	303
1376	327
1377	314
1378	335
1379	299
1380	338
1381	367
1382	422
1383	521
1384	682
1385	950
1386	1429
1387	1973
1388	2634
1389	3319
1390	3768
1391	3897
1392	3735
1393	3290
1394	2559
1395	1808
1396	1298
1397	872
1398	612
1399	451
1400	347
1401	328
1402	296
1403	285
1404	280
1405	270
1406	255
1407	282
1408	272
1409	275
1410	246
1411	246
1412	265
1413	246
1414	280
1415	251
1416	258
1417	226
1418	294
1419	253
1420	256
1421	217
1422	240
1423	242
1424	241
1425	261
1426	233
1427	236
1428	247
1429	225
1430	254
1431	255
1432	238
1433	246
1434	247
1435	236
1436	245
1437	240
1438	253
1439	244
1440	231
1441	222
1442	238
1443	226
1444	248
1445	248
1446	217
1447	230
1448	203
1449	178
1450	206
1451	217
1452	223
1453	219
1454	210
1455	235
1456	235
1457	223
1458	168
1459	224
1460	214
1461	206
1462	221
1463	228
1464	235
1465	211
1466	184
1467	221
1468	223
1469	206
1470	219
1471	233
1472	219
1473	196
1474	221
1475	200
1476	230
1477	205
1478	219
1479	206
1480	216
1481	207
1482	206
1483	216
1484	226
1485	235
1486	189
1487	224
1488	215
1489	186
1490	219
1491	200
1492	217
1493	207
1494	190
1495	205
1496	231
1497	200
1498	187
1499	179
1500	204
1501	201
1502	211
1503	213
1504	191
1505	207
1506	203
1507	178
1508	202
1509	182
1510	201
1511	191
1512	189
1513	204
1514	194
1515	199
1516	193
1517	204
1518	205
1519	190
1520	210
1521	195
1522	194
1523	172
1524	200
1525	196
1526	184
1527	216
1528	182
1529	215
1530	203
1531	181
1532	196
1533	180
1534	184
1535	195
1536	200
1537	183
1538	205
1539	164
1540	180
1541	194
1542	190
1543	176
1544	176
1545	188
1546	184
1547	219
1548	202
1549	204
1550	202
1551	193
1552	171
1553	181
1554	196
1555	170
1556	190
1557	152
1558	193
1559	185
1560	165
1561	170
1562	182
1563	197
1564	186
1565	173
1566	170
1567	192
1568	191
1569	205
1570	188
1571	156
1572	183
1573	194
1574	179
1575	180
1576	176
1577	196
1578	157
1579	218
1580	161
1581	179
1582	160
1583	185
1584	186
1585	172
1586	170
1587	178
1588	195
1589	185
1590	186
1591	177
1592	192
1593	170
1594	177
1595	203
1596	182
1597	165
1598	175
1599	168
1600	149
1601	187
1602	163
1603	150
1604	178
1605	186
1606	166
1607	149
1608	169
1609	161
1610	165
1611	182
1612	193
1613	173
1614	193
1615	186
1616	198
1617	184
1618	205
1619	176
1620	178
1621	162
1622	176
1623	183
1624	160
1625	184
1626	202
1627	209
1628	174
1629	192
1630	186
1631	189
1632	179
1633	192
1634	184
1635	187
1636	178
1637	153
1638	165
1639	149
1640	187
1641	186
1642	185
1643	199
1644	205
1645	174
1646	159
1647	194
1648	193
1649	183
1650	170
1651	156
1652	178
1653	182
1654	173
1655	175
1656	163
1657	177
1658	190
1659	167
1660	174
1661	187
1662	173
1663	181
1664	195
1665	142
1666	165
1667	175
1668	196
1669	164
1670	152
1671	169
1672	203
1673	165
1674	177
1675	181
1676	198
1677	182
1678	180
1679	162
1680	185
1681	200
1682	183
1683	172
1684	177
1685	192
1686	201
1687	168
1688	165
1689	192
1690	178
1691	170
1692	187
1693	190
1694	183
1695	201
1696	175
1697	189
1698	189
1699	185
1700	177
1701	190
1702	199
1703	175
1704	195
1705	187
1706	194
1707	188
1708	186
1709	172
1710	165
1711	181
1712	191
1713	182
1714	170
1715	206
1716	181
1717	192
1718	184
1719	184
1720	158
1721	209
1722	177
1723	179
1724	174
1725	194
1726	196
1727	183
1728	179
1729	150
1730	196
1731	169
1732	196
1733	184
1734	180
1735	187
1736	183
1737	189
1738	164
1739	186
1740	172
1741	167
1742	193
1743	183
1744	194
1745	172
1746	219
1747	184
1748	155
1749	184
1750	186
1751	170
1752	165
1753	187
1754	189
1755	176
1756	156
1757	196
1758	171
1759	183
1760	178
1761	197
1762	181
1763	182
1764	196
1765	175
1766	205
1767	194
1768	181
1769	164
1770	211
1771	206
1772	221
1773	250
1774	361
1775	591
1776	1234
1777	2935
1778	6971
1779	12824
1780	19366
1781	23116
1782	21533
1783	15799
1784	8521
1785	3583
1786	1151
1787	382
1788	192
1789	156
1790	156
1791	151
1792	170
1793	147
1794	134
1795	172
1796	159
1797	172
1798	171
1799	144
1800	139
1801	125
1802	138
1803	169
1804	139
1805	170
1806	135
1807	164
1808	122
1809	142
1810	142
1811	135
1812	127
1813	131
1814	144
1815	146
1816	138
1817	125
1818	148
1819	141
1820	123
1821	119
1822	142
1823	146
1824	145
1825	137
1826	140
1827	137
1828	139
1829	142
1830	163
1831	136
1832	139
1833	135
1834	155
1835	163
1836	143
1837	137
1838	120
1839	119
1840	130
1841	130
1842	135
1843	133
1844	137
1845	152
1846	146
1847	149
1848	137
1849	161
1850	150
1851	130
1852	154
1853	138
1854	131
1855	160
1856	124
1857	151
1858	165
1859	165
1860	142
1861	158
1862	147
1863	153
1864	138
1865	152
1866	136
1867	147
1868	124
1869	131
1870	151
1871	138
1872	156
1873	141
1874	155
1875	138
1876	141
1877	156
1878	139
1879	146
1880	137
1881	137
1882	144
1883	149
1884	133
1885	173
1886	133
1887	144
1888	139
1889	136
1890	126
1891	139
1892	155
1893	136
1894	137
1895	138
1896	113
1897	145
1898	146
1899	151
1900	137
1901	168
1902	152
1903	115
1904	142
1905	130
1906	143
1907	119
1908	146
1909	145
1910	168
1911	141
1912	159
1913	157
1914	155
1915	151
1916	124
1917	133
1918	136
1919	110
1920	140
1921	128
1922	152
1923	136
1924	143
1925	158
1926	131
1927	161
1928	141
1929	160
1930	134
1931	149
1932	161
1933	143
1934	131
1935	153
1936	159
1937	150
1938	142
1939	142
1940	146
1941	145
1942	156
1943	127
1944	151
1945	149
1946	125
1947	148
1948	160
1949	161
1950	157
1951	154
1952	154
1953	134
1954	131
1955	170
1956	150
1957	140
1958	146
1959	157
1960	154
1961	155
1962	139
1963	131
1964	162
1965	146
1966	133
1967	120
1968	145
1969	162
1970	165
1971	137
1972	144
1973	160
1974	135
1975	146
1976	157
1977	163
1978	147
1979	138
1980	180
1981	143
1982	173
1983	154
1984	152
1985	180
1986	129
1987	176
1988	153
1989	178
1990	147
1991	146
1992	137
1993	148
1994	153
1995	143
1996	131
1997	154
1998	149
1999	143
2000	172
2001	164
2002	127
2003	140
2004	136
2005	156
2006	149
2007	144
2008	145
2009	154
2010	149
2011	147
2012	146
2013	144
2014	149
2015	153
2016	158
2017	148
2018	134
2019	145
2020	152
2021	171
2022	159
2023	160
2024	166
2025	143
2026	147
2027	147
2028	158
2029	171
2030	131
2031	164
2032	144
2033	162
2034	151
2035	159
2036	138
2037	166
2038	144
2039	134
2040	157
2041	141
2042	156
2043	163
2044	165
2045	146
2046	177
2047	168
2048	166
2049	140
2050	129
2051	147
2052	139
2053	133
2054	161
2055	131
2056	139
2057	169
2058	166
2059	140
2060	153
2061	148
2062	171
2063	163
2064	156
2065	165
2066	136
2067	157
2068	150
2069	165
2070	164
2071	153
2072	147
2073	158
2074	153
2075	143
2076	164
2077	147
2078	170
2079	155
2080	145
2081	157
2082	171
2083	159
2084	161
2085	148
2086	144
2087	149
2088	151
2089	175
2090	169
2091	170
2092	159
2093	166
2094	176
2095	165
2096	167
2097	153
2098	157
2099	156
2100	144
2101	160
2102	161
2103	169
2104	164
2105	178
2106	157
2107	147
2108	178
2109	171
2110	155
2111	139
2112	150
2113	156
2114	135
2115	168
2116	172
2117	158
2118	160
2119	176
2120	170
2121	154
2122	164
2123	180
2124	156
2125	157
2126	154
2127	136
2128	171
2129	167
2130	154
2131	140
2132	156
2133	175
2134	169
2135	139
2136	166
2137	194
2138	140
2139	147
2140	152
2141	166
2142	159
2143	164
2144	170
2145	162
2146	146
2147	141
2148	163
2149	158
2150	157
2151	161
2152	169
2153	160
2154	178
2155	175
2156	163
2157	183
2158	179
2159	162
2160	148
2161	182
2162	184
2163	151
2164	174
2165	168
2166	165
2167	172
2168	177
2169	177
2170	158
2171	141
2172	155
2173	166
2174	155
2175	162
2176	162
2177	203
2178	172
2179	145
2180	180
2181	166
2182	158
2183	172
2184	166
2185	141
2186	163
2187	156
2188	170
2189	175
2190	164
2191	183
2192	181
2193	182
2194	205
2195	177
2196	189
2197	160
2198	201
2199	169
2200	203
2201	182
2202	193
2203	163
2204	162
2205	181
2206	185
2207	199
2208	172
2209	149
2210	152
2211	153
2212	159
2213	176
2214	177
2215	161
2216	177
2217	149
2218	157
2219	192
2220	157
2221	175
2222	176
2223	177
2224	159
2225	168
2226	160
2227	178
2228	188
2229	174
2230	180
2231	190
2232	182
2233	173
2234	155
2235	178
2236	164
2237	182
2238	174
2239	167
2240	164
2241	173
2242	174
2243	189
2244	176
2245	186
2246	186
2247	169
2248	179
2249	171
2250	189
2251	162
2252	197
2253	188
2254	174
2255	177
2256	158
2257	186
2258	174
2259	199
2260	169
2261	191
2262	173
2263	173
2264	170
2265	156
2266	209
2267	171
2268	173
2269	180
2270	166
2271	173
2272	173
2273	190
2274	206
2275	168
2276	161
2277	194
2278	187
2279	173
2280	164
2281	178
2282	182
2283	168
2284	179
2285	177
2286	180
2287	178
2288	177
2289	177
2290	185
2291	174
2292	183
2293	200
2294	167
2295	181
2296	182
2297	163
2298	210
2299	202
2300	186
2301	185
2302	186
2303	201
2304	204
2305	185
2306	178
2307	183
2308	219
2309	194
2310	164
2311	180
2312	183
2313	187
2314	174
2315	184
2316	186
2317	166
2318	178
2319	167
2320	190
2321	204
2322	181
2323	197
2324	184
2325	184
2326	205
2327	210
2328	184
2329	196
2330	199
2331	177
2332	213
2333	194
2334	216
2335	197
2336	200
2337	214
2338	188
2339	180
2340	190
2341	175
2342	224
2343	185
2344	198
2345	201
2346	197
2347	181
2348	214
2349	202
2350	231
2351	199
2352	190
2353	184
2354	204
2355	193
2356	248
2357	165
2358	198
2359	181
2360	184
2361	203
2362	212
2363	222
2364	220
2365	202
2366	213
2367	202
2368	195
2369	197
2370	208
2371	190
2372	212
2373	202
2374	190
2375	215
2376	222
2377	188
2378	216
2379	208
2380	215
2381	188
2382	194
2383	204
2384	209
2385	196
2386	204
2387	198
2388	205
2389	183
2390	220
2391	226
2392	223
2393	195
2394	220
2395	214
2396	204
2397	206
2398	217
2399	205
2400	202
2401	198
2402	206
2403	208
2404	218
2405	201
2406	209
2407	213
2408	232
2409	232
2410	220
2411	205
2412	231
2413	213
2414	192
2415	207
2416	235
2417	204
2418	223
2419	220
2420	203
2421	240
2422	226
2423	214
2424	223
2425	216
2426	229
2427	223
2428	214
2429	206
2430	228
2431	203
2432	225
2433	189
2434	237
2435	242
2436	206
2437	230
2438	237
2439	246
2440	215
2441	231
2442	220
2443	193
2444	240
2445	215
2446	248
2447	237
2448	213
2449	222
2450	209
2451	220
2452	217
2453	210
2454	231
2455	227
2456	220
2457	237
2458	215
2459	248
2460	201
2461	233
2462	204
2463	252
2464	238
2465	243
2466	237
2467	242
2468	220
2469	234
2470	246
2471	210
2472	259
2473	230
2474	222
2475	252
2476	219
2477	293
2478	232
2479	279
2480	249
2481	251
2482	231
2483	261
2484	252
2485	247
2486	248
2487	243
2488	223
2489	270
2490	221
2491	258
2492	236
2493	247
2494	260
2495	265
2496	244
2497	234
2498	255
2499	248
2500	275
2501	270
2502	281
2503	236
2504	246
2505	235
2506	245
2507	207
2508	248
2509	272
2510	239
2511	254
2512	242
2513	260
2514	264
2515	270
2516	264
2517	221
2518	249
2519	274
2520	263
2521	255
2522	238
2523	271
2524	243
2525	229
2526	236
2527	255
2528	222
2529	244
2530	229
2531	300
2532	236
2533	257
2534	281
2535	242
2536	247
2537	248
2538	268
2539	251
2540	262
2541	274
2542	266
2543	255
2544	251
2545	251
2546	248
2547	257
2548	264
2549	254
2550	259
2551	268
2552	271
2553	244
2554	247
2555	251
2556	260
2557	251
2558	231
2559	248
2560	244
2561	252
2562	242
2563	212
2564	231
2565	234
2566	238
2567	212
2568	202
2569	215
2570	215
2571	227
2572	192
2573	225
2574	197
2575	195
2576	210
2577	213
2578	206
2579	193
2580	196
2581	220
2582	203
2583	196
2584	208
2585	209
2586	200
2587	199
2588	188
2589	203
2590	193
2591	188
2592	196
2593	208
2594	203
2595	192
2596	175
2597	206
2598	176
2599	188
2600	168
2601	192
2602	186
2603	210
2604	180
2605	205
2606	190
2607	184
2608	204
2609	178
2610	168
2611	184
2612	163
2613	183
2614	186
2615	185
2616	183
2617	189
2618	188
2619	200
2620	193
2621	203
2622	168
2623	204
2624	197
2625	195
2626	178
2627	190
2628	164
2629	197
2630	170
2631	176
2632	198
2633	205
2634	180
2635	179
2636	187
2637	192
2638	178
2639	188
2640	186
2641	179
2642	197
2643	188
2644	180
2645	187
2646	197
2647	212
2648	184
2649	188
2650	199
2651	198
2652	153
2653	189
2654	198
2655	169
2656	192
2657	183
2658	190
2659	207
2660	204
2661	194
2662	200
2663	201
2664	193
2665	177
2666	171
2667	175
2668	195
2669	189
2670	176
2671	178
2672	200
2673	170
2674	181
2675	191
2676	191
2677	173
2678	165
2679	177
2680	176
2681	176
2682	214
2683	166
2684	190
2685	205
2686	182
2687	191
2688	178
2689	177
2690	203
2691	186
2692	182
2693	199
2694	169
2695	189
2696	196
2697	181
2698	194
2699	172
2700	178
2701	166
2702	183
2703	195
2704	175
2705	156
2706	193
2707	174
2708	193
2709	160
2710	178
2711	189
2712	175
2713	148
2714	193
2715	198
2716	185
2717	171
2718	175
2719	167
2720	182
2721	190
2722	183
2723	164
2724	204
2725	164
2726	202
2727	180
2728	191
2729	170
2730	169
2731	194
2732	176
2733	159
2734	178
2735	144
2736	171
2737	177
2738	177
2739	179
2740	173
2741	173
2742	184
2743	172
2744	175
2745	185
2746	177
2747	183
2748	165
2749	197
2750	160
2751	192
2752	176
2753	169
2754	176
2755	169
2756	164
2757	164
2758	184
2759	174
2760	193
2761	199
2762	163
2763	161
2764	186
2765	169
2766	181
2767	188
2768	172
2769	177
2770	190
2771	170
2772	177
2773	187
2774	168
2775	165
2776	163
2777	183
2778	163
2779	182
2780	172
2781	167
2782	168
2783	170
2784	176
2785	171
2786	169
2787	171
2788	168
2789	163
2790	157
2791	188
2792	170
2793	155
2794	163
2795	164
2796	182
2797	184
2798	183
2799	187
2800	155
2801	165
2802	165
2803	180
2804	179
2805	142
2806	179
2807	201
2808	177
2809	150
2810	181
2811	175
2812	162
2813	146
2814	170
2815	164
2816	152
2817	152
2818	164
2819	162
2820	181
2821	182
2822	164
2823	161
2824	139
2825	162
2826	183
2827	162
2828	185
2829	167
2830	133
2831	153
2832	148
2833	167
2834	170
2835	171
2836	171
2837	148
2838	168
2839	168
2840	199
2841	167
2842	179
2843	166
2844	163
2845	147
2846	163
2847	150
2848	148
2849	182
2850	165
2851	168
2852	169
2853	186
2854	158
2855	192
2856	169
2857	165
2858	184
2859	162
2860	163
2861	155
2862	154
2863	166
2864	181
2865	174
2866	166
2867	168
2868	168
2869	157
2870	171
2871	150
2872	159
2873	145
2874	177
2875	143
2876	178
2877	149
2878	149
2879	181
2880	151
2881	170
2882	167
2883	188
2884	184
2885	185
2886	179
2887	174
2888	189
2889	155
2890	158
2891	169
2892	182
2893	173
2894	160
2895	152
2896	167
2897	159
2898	169
2899	151
2900	175
2901	172
2902	180
2903	190
2904	142
2905	173
2906	166
2907	155
2908	205
2909	166
2910	163
2911	155
2912	173
2913	160
2914	175
2915	186
2916	193
2917	170
2918	170
2919	202
2920	166
2921	183
2922	182
2923	196
2924	167
2925	177
2926	161
2927	175
2928	171
2929	172
2930	180
2931	148
2932	186
2933	162
2934	167
2935	174
2936	181
2937	200
2938	169
2939	154
2940	167
2941	168
2942	186
2943	180
2944	153
2945	194
2946	174
2947	169
2948	180
2949	153
2950	167
2951	211
2952	176
2953	155
2954	164
2955	177
2956	148
2957	175
2958	169
2959	184
2960	168
2961	156
2962	143
2963	147
2964	155
2965	145
2966	130
2967	159
2968	156
2969	151
2970	128
2971	130
2972	121
2973	136
2974	126
2975	122
2976	122
2977	128
2978	115
2979	118
2980	116
2981	130
2982	135
2983	100
2984	123
2985	129
2986	99
2987	95
2988	143
2989	126
2990	106
2991	123
2992	126
2993	103
2994	104
2995	118
2996	117
2997	105
2998	125
2999	106
3000	98
3001	97
3002	105
3003	107
3004	93
3005	115
3006	97
3007	110
3008	79
3009	115
3010	113
3011	103
3012	102
3013	113
3014	89
3015	109
3016	85
3017	88
3018	104
3019	105
3020	103
3021	96
3022	104
3023	107
3024	92
3025	95
3026	98
3027	101
3028	103
3029	117
3030	91
3031	98
3032	94
3033	100
3034	113
3035	86
3036	98
3037	88
3038	76
3039	97
3040	104
3041	100
3042	84
3043	99
3044	100
3045	107
3046	96
3047	91
3048	116
3049	101
3050	97
3051	98
3052	82
3053	96
3054	93
3055	87
3056	89
3057	99
3058	87
3059	85
3060	88
3061	84
3062	112
3063	113
3064	85
3065	86
3066	80
3067	85
3068	92
3069	103
3070	83
3071	72
3072	87
3073	81
3074	92
3075	91
3076	64
3077	90
3078	81
3079	81
3080	98
3081	100
3082	106
3083	90
3084	83
3085	82
3086	72
3087	94
3088	101
3089	74
3090	95
3091	77
3092	79
3093	92
3094	92
3095	87
3096	82
3097	103
3098	121
3099	159
3100	283
3101	571
3102	1363
3103	2776
3104	5166
3105	7851
3106	9783
3107	10278
3108	8975
3109	6355
3110	3532
3111	1586
3112	623
3113	252
3114	117
3115	95
3116	81
3117	56
3118	78
3119	82
3120	62
3121	65
3122	62
3123	72
3124	62
3125	71
3126	49
3127	72
3128	64
3129	64
3130	50
3131	65
3132	68
3133	51
3134	58
3135	59
3136	60
3137	64
3138	66
3139	50
3140	53
3141	63
3142	63
3143	50
3144	50
3145	75
3146	61
3147	69
3148	62
3149	62
3150	57
3151	60
3152	54
3153	54
3154	50
3155	65
3156	49
3157	59
3158	53
3159	58
3160	52
3161	48
3162	54
3163	51
3164	54
3165	49
3166	32
3167	55
3168	55
3169	55
3170	55
3171	49
3172	55
3173	52
3174	51
3175	58
3176	49
3177	51
3178	50
3179	45
3180	45
3181	49
3182	41
3183	42
3184	43
3185	47
3186	37
3187	38
3188	45
3189	40
3190	43
3191	39
3192	37
3193	41
3194	33
3195	34
3196	48
3197	63
3198	46
3199	48
3200	37
3201	46
3202	35
3203	45
3204	36
3205	42
3206	28
3207	41
3208	39
3209	34
3210	35
3211	40
3212	25
3213	40
3214	42
3215	32
3216	34
3217	34
3218	50
3219	50
3220	41
3221	31
3222	29
3223	34
3224	42
3225	31
3226	42
3227	34
3228	23
3229	36
3230	40
3231	31
3232	42
3233	38
3234	26
3235	41
3236	31
3237	38
3238	30
3239	29
3240	33
3241	21
3242	28
3243	34
3244	26
3245	19
3246	35
3247	35
3248	31
3249	26
3250	24
3251	39
3252	27
3253	29
3254	33
3255	23
3256	22
3257	25
3258	22
3259	22
3260	32
3261	26
3262	36
3263	22
3264	18
3265	25
3266	23
3267	24
3268	27
3269	34
3270	32
3271	31
3272	21
3273	24
3274	36
3275	22
3276	26
3277	20
3278	20
3279	20
3280	30
3281	23
3282	23
3283	23
3284	26
3285	19
3286	29
3287	24
3288	29
3289	28
3290	18
3291	26
3292	27
3293	24
3294	23
3295	18
3296	27
3297	22
3298	17
3299	32
3300	23
3301	19
3302	12
3303	23
3304	15
3305	30
3306	25
3307	21
3308	31
3309	24
3310	19
3311	21
3312	27
3313	24
3314	22
3315	22
3316	20
3317	22
3318	14
3319	22
3320	28
3321	23
3322	13
3323	21
3324	23
3325	24
3326	17
3327	22
3328	18
3329	26
3330	26
3331	21
3332	22
3333	14
3334	23
3335	17
3336	17
3337	21
3338	26
3339	17
3340	14
3341	31
3342	20
3343	21
3344	13
3345	16
3346	18
3347	18
3348	18
3349	25
3350	25
3351	19
3352	22
3353	22
3354	21
3355	26
3356	20
3357	17
3358	18
3359	24
3360	28
3361	25
3362	41
3363	70
3364	132
3365	272
3366	509
3367	885
3368	1276
3369	1329
3370	1315
3371	1076
3372	697
3373	367
3374	172
3375	73
3376	37
3377	33
3378	11
3379	18
3380	25
3381	15
3382	23
3383	25
3384	11
3385	12
3386	22
3387	14
3388	15
3389	23
3390	16
3391	14
3392	21
3393	14
3394	21
3395	23
3396	18
3397	11
3398	20
3399	9
3400	21
3401	11
3402	23
3403	17
3404	19
3405	18
3406	16
3407	14
3408	12
3409	20
3410	19
3411	21
3412	17
3413	18
3414	21
3415	17
3416	12
3417	17
3418	15
3419	20
3420	17
3421	11
3422	30
3423	27
3424	17
3425	25
3426	16
3427	10
3428	12
3429	8
3430	13
3431	19
3432	13
3433	17
3434	16
3435	11
3436	15
3437	18
3438	21
3439	11
3440	12
3441	14
3442	15
3443	20
3444	22
3445	27
3446	16
3447	16
3448	14
3449	15
3450	17
3451	21
3452	16
3453	10
3454	19
3455	15
3456	11
3457	16
3458	19
3459	12
3460	18
3461	14
3462	11
3463	11
3464	16
3465	19
3466	24
3467	24
3468	18
3469	21
3470	12
3471	19
3472	13
3473	20
3474	22
3475	10
3476	14
3477	18
3478	24
3479	23
3480	15
3481	18
3482	24
3483	13
3484	17
3485	18
3486	22
3487	10
3488	22
3489	10
3490	12
3491	8
3492	23
3493	16
3494	17
3495	23
3496	11
3497	11
3498	15
3499	13
3500	23
3501	15
3502	22
3503	20
3504	17
3505	18
3506	27
3507	18
3508	18
3509	21
3510	39
3511	76
3512	96
3513	269
3514	606
3515	1460
3516	2853
3517	5093
3518	7275
3519	9020
3520	9046
3521	7456
3522	5120
3523	3023
3524	1277
3525	517
3526	139
3527	55
3528	17
3529	22
3530	18
3531	20
3532	8
3533	14
3534	13
3535	9
3536	16
3537	9
3538	17
3539	14
3540	11
3541	16
3542	11
3543	5
3544	6
3545	13
3546	8
3547	14
3548	9
3549	13
3550	13
3551	13
3552	8
3553	9
3554	6
3555	9
3556	8
3557	9
3558	10
3559	7
3560	14
3561	9
3562	9
3563	11
3564	7
3565	11
3566	4
3567	7
3568	8
3569	11
3570	4
3571	7
3572	7
3573	10
3574	5
3575	7
3576	8
3577	5
3578	7
3579	7
3580	6
3581	6
3582	10
3583	6
3584	6
3585	4
3586	8
3587	6
3588	9
3589	8
3590	5
3591	8
3592	7
3593	7
3594	11
3595	8
3596	5
3597	9
3598	8
3599	11
3600	4
3601	6
3602	6
3603	13
3604	4
3605	10
3606	5
3607	5
3608	5
3609	7
3610	7
3611	10
3612	5
3613	9
3614	5
3615	9
3616	10
3617	6
3618	4
3619	8
3620	8
3621	7
3622	10
3623	10
3624	15
3625	11
3626	3
3627	9
3628	9
3629	6
3630	6
3631	8
3632	6
3633	8
3634	8
3635	11
3636	8
3637	10
3638	7
3639	11
3640	6
3641	10
3642	8
3643	7
3644	3
3645	3
3646	4
3647	14
3648	4
3649	8
3650	4
3651	5
3652	5
3653	4
3654	8
3655	8
3656	3
3657	6
3658	5
3659	7
3660	9
3661	2
3662	5
3663	8
3664	10
3665	11
3666	4
3667	7
3668	6
3669	8
3670	6
3671	5
3672	3
3673	9
3674	4
3675	8
3676	15
3677	5
3678	7
3679	4
3680	8
3681	5
3682	7
3683	8
3684	10
3685	3
3686	5
3687	8
3688	8
3689	3
3690	5
3691	5
3692	7
3693	4
3694	7
3695	6
3696	5
3697	6
3698	9
3699	5
3700	8
3701	9
3702	7
3703	8
3704	10
3705	4
3706	6
3707	10
3708	8
3709	12
3710	7
3711	6
3712	8
3713	5
3714	10
3715	5
3716	3
3717	6
3718	7
3719	9
3720	7
3721	5
3722	7
3723	7
3724	6
3725	6
3726	4
3727	7
3728	7
3729	7
3730	4
3731	7
3732	8
3733	10
3734	7
3735	10
3736	4
3737	7
3738	5
3739	14
3740	7
3741	9
3742	5
3743	8
3744	10
3745	5
3746	6
3747	3
3748	5
3749	7
3750	8
3751	9
3752	2
3753	4
3754	6
3755	4
3756	4
3757	9
3758	3
3759	6
3760	7
3761	9
3762	5
3763	11
3764	4
3765	5
3766	6
3767	6
3768	6
3769	4
3770	6
3771	9
3772	5
3773	5
3774	8
3775	7
3776	8
3777	4
3778	4
3779	8
3780	1
3781	6
3782	6
3783	3
3784	4
3785	6
3786	4
3787	4
3788	7
3789	3
3790	12
3791	10
3792	8
3793	7
3794	5
3795	3
3796	4
3797	8
3798	9
3799	4
3800	12
3801	4
3802	9
3803	6
3804	1
3805	7
3806	11
3807	6
3808	8
3809	6
3810	6
3811	8
3812	3
3813	5
3814	2
3815	6
3816	11
3817	1
3818	6
3819	8
3820	3
3821	3
3822	4
3823	3
3824	9
3825	6
3826	5
3827	5
3828	11
3829	7
3830	9
3831	8
3832	3
3833	9
3834	8
3835	8
3836	6
3837	4
3838	6
3839	3
3840	3
3841	10
3842	5
3843	8
3844	7
3845	5
3846	3
3847	6
3848	5
3849	12
3850	6
3851	10
3852	7
3853	5
3854	4
3855	6
3856	4
3857	5
3858	7
3859	8
3860	5
3861	4
3862	3
3863	7
3864	6
3865	4
3866	5
3867	2
3868	8
3869	6
3870	6
3871	5
3872	6
3873	5
3874	8
3875	3
3876	8
3877	7
3878	7
3879	13
3880	1
3881	4
3882	5
3883	5
3884	3
3885	4
3886	6
3887	9
3888	5
3889	8
3890	1
3891	6
3892	2
3893	7
3894	6
3895	6
3896	8
3897	2
3898	7
3899	7
3900	5
3901	5
3902	3
3903	5
3904	6
3905	4
3906	11
3907	5
3908	3
3909	2
3910	3
3911	6
3912	7
3913	7
3914	6
3915	7
3916	7
3917	3
3918	2
3919	5
3920	6
3921	9
3922	3
3923	4
3924	5
3925	4
3926	4
3927	3
3928	8
3929	7
3930	4
3931	8
3932	2
3933	9
3934	6
3935	5
3936	3
3937	5
3938	2
3939	5
3940	10
3941	6
3942	6
3943	4
3944	12
3945	3
3946	4
3947	3
3948	3
3949	10
3950	3
3951	6
3952	6
3953	7
3954	5
3955	3
3956	2
3957	5
3958	8
3959	7
3960	3
3961	3
3962	2
3963	3
3964	6
3965	5
3966	8
3967	5
3968	5
3969	3
3970	5
3971	3
3972	2
3973	2
3974	7
3975	5
3976	4
3977	5
3978	8
3979	2
3980	6
3981	1
3982	6
3983	6
3984	10
3985	5
3986	4
3987	7
3988	3
3989	7
3990	7
3991	3
3992	6
3993	2
3994	5
3995	7
3996	6
3997	2
3998	4
3999	3
4000	8
4001	3
4002	6
4003	7
4004	5
4005	2
4006	3
4007	7
4008	3
4009	3
4010	6
4011	9
4012	3
4013	7
4014	4
4015	4
4016	6
4017	2
4018	1
4019	7
4020	6
4021	7
4022	7
4023	6
4024	6
4025	5
4026	3
4027	3
4028	3
4029	3
4030	2
4031	3
4032	9
4033	4
4034	4
4035	3
4036	10
4037	4
4038	7
4039	7
4040	3
4041	8
4042	4
4043	6
4044	7
4045	3
4046	4
4047	1
4048	12
4049	1
4050	4
4051	2
4052	5
4053	7
4054	9
4055	4
4056	3
4057	2
4058	6
4059	7
4060	7
4061	3
4062	9
4063	5
4064	8
4065	5
4066	4
4067	6
4068	3
4069	4
4070	9
4071	7
4072	5
4073	4
4074	6
4075	1
4076	3
4077	7
4078	9
4079	6
4080	5
4081	3
4082	6
4083	4
4084	3
4085	5
4086	3
4087	5
4088	3
4089	8
4090	5
4091	2
4092	3
4093	7
4094	1
4095	8
4096	9
4097	7
4098	7
4099	8
4100	5
4101	6
4102	6
4103	1
4104	1
4105	3
4106	5
4107	3
4108	4
4109	8
4110	3
4111	4
4112	6
4113	9
4114	6
4115	9
4116	3
4117	7
4118	7
4119	3
4120	4
4121	7
4122	4
4123	3
4124	5
4125	4
4126	5
4127	1
4128	5
4129	3
4130	5
4131	9
4132	8
4133	2
4134	2
4135	6
4136	3
4137	4
4138	4
4139	4
4140	8
4141	5
4142	1
4143	3
4144	6
4145	0
4146	10
4147	4
4148	4
4149	2
4150	10
4151	5
4152	4
4153	5
4154	6
4155	6
4156	3
4157	4
4158	7
4159	4
4160	7
4161	6
4162	3
4163	4
4164	4
4165	2
4166	1
4167	0
4168	7
4169	4
4170	1
4171	5
4172	1
4173	11
4174	6
4175	4
4176	8
4177	4
4178	6
4179	4
4180	6
4181	9
4182	6
4183	4
4184	5
4185	6
4186	6
4187	4
4188	3
4189	8
4190	3
4191	6
4192	6
4193	6
4194	6
4195	5
4196	5
4197	4
4198	4
4199	4
4200	5
4201	7
4202	9
4203	1
4204	5
4205	3
4206	13
4207	7
4208	8
4209	2
4210	4
4211	7
4212	7
4213	6
4214	3
4215	2
4216	3
4217	4
4218	5
4219	4
4220	3
4221	2
4222	2
4223	7
4224	8
4225	5
4226	2
4227	4
4228	2
4229	2
4230	3
4231	4
4232	3
4233	3
4234	2
4235	7
4236	3
4237	7
4238	2
4239	8
4240	5
4241	6
4242	5
4243	4
4244	4
4245	4
4246	8
4247	3
4248	5
4249	6
4250	2
4251	4
4252	2
4253	6
4254	5
4255	4
4256	7
4257	0
4258	6
4259	7
4260	2
4261	5
4262	8
4263	3
4264	4
4265	4
4266	2
4267	5
4268	4
4269	2
4270	2
4271	1
4272	1
4273	5
4274	2
4275	4
4276	4
4277	6
4278	2
4279	4
4280	3
4281	5
4282	6
4283	6
4284	6
4285	5
4286	0
4287	6
4288	6
4289	2
4290	6
4291	4
4292	9
4293	7
4294	3
4295	3
4296	4
4297	3
4298	6
4299	4
4300	7
4301	6
4302	1
4303	1
4304	6
4305	3
4306	3
4307	3
4308	0
4309	5
4310	5
4311	4
4312	3
4313	1
4314	1
4315	7
4316	8
4317	4
4318	4
4319	3
4320	3
4321	2
4322	3
4323	8
4324	2
4325	3
4326	3
4327	2
4328	3
4329	6
4330	4
4331	1
4332	2
4333	3
4334	1
4335	5
4336	5
4337	2
4338	8
4339	3
4340	4
4341	1
4342	6
4343	3
4344	6
4345	2
4346	2
4347	7
4348	5
4349	5
4350	4
4351	4
4352	4
4353	8
4354	2
4355	5
4356	3
4357	1
4358	4
4359	6
4360	4
4361	0
4362	3
4363	5
4364	5
4365	3
4366	2
4367	4
4368	4
4369	5
4370	8
4371	3
4372	2
4373	4
4374	4
4375	2
4376	4
4377	2
4378	1
4379	2
4380	4
4381	5
4382	4
4383	10
4384	5
4385	5
4386	6
4387	5
4388	1
4389	3
4390	3
4391	4
4392	1
4393	6
4394	3
4395	5
4396	7
4397	4
4398	2
4399	1
4400	2
4401	2
4402	1
4403	4
4404	4
4405	6
4406	4
4407	8
4408	4
4409	3
4410	5
4411	1
4412	6
4413	1
4414	3
4415	1
4416	4
4417	8
4418	3
4419	6
4420	5
4421	4
4422	2
4423	4
4424	4
4425	1
4426	7
4427	1
4428	1
4429	6
4430	6
4431	3
4432	4
4433	0
4434	2
4435	3
4436	4
4437	0
4438	2
4439	3
4440	0
4441	5
4442	3
4443	2
4444	5
4445	5
4446	4
4447	1
4448	3
4449	5
4450	6
4451	5
4452	4
4453	1
4454	2
4455	4
4456	2
4457	3
4458	5
4459	2
4460	3
4461	3
4462	9
4463	8
4464	4
4465	5
4466	2
4467	5
4468	3
4469	2
4470	5
4471	6
4472	4
4473	3
4474	3
4475	2
4476	3
4477	2
4478	4
4479	10
4480	6
4481	1
4482	2
4483	2
4484	3
4485	3
4486	3
4487	4
4488	4
4489	2
4490	2
4491	3
4492	3
4493	3
4494	4
4495	4
4496	2
4497	5
4498	2
4499	0
4500	1
4501	1
4502	6
4503	1
4504	6
4505	3
4506	4
4507	3
4508	1
4509	5
4510	7
4511	6
4512	4
4513	2
4514	0
4515	2
4516	2
4517	3
4518	1
4519	2
4520	2
4521	5
4522	1
4523	4
4524	4
4525	1
4526	6
4527	4
4528	3
4529	3
4530	2
4531	5
4532	1
4533	3
4534	3
4535	2
4536	5
4537	4
4538	3
4539	9
4540	3
4541	1
4542	2
4543	1
4544	5
4545	2
4546	6
4547	5
4548	1
4549	2
4550	3
4551	5
4552	6
4553	5
4554	0
4555	1
4556	2
4557	2
4558	4
4559	1
4560	2
4561	6
4562	3
4563	4
4564	3
4565	4
4566	2
4567	3
4568	3
4569	2
4570	1
4571	3
4572	2
4573	5
4574	2
4575	2
4576	3
4577	0
4578	6
4579	6
4580	4
4581	4
4582	3
4583	8
4584	3
4585	6
4586	2
4587	4
4588	3
4589	0
4590	3
4591	3
4592	6
4593	4
4594	4
4595	2
4596	1
4597	1
4598	2
4599	7
4600	2
4601	1
4602	1
4603	1
4604	4
4605	3
4606	1
4607	1
4608	2
4609	3
4610	1
4611	4
4612	4
4613	1
4614	4
4615	9
4616	5
4617	3
4618	2
4619	2
4620	2
4621	5
4622	4
4623	6
4624	2
4625	3
4626	3
4627	3
4628	2
4629	3
4630	0
4631	5
4632	4
4633	5
4634	1
4635	4
4636	4
4637	6
4638	7
4639	5
4640	3
4641	4
4642	2
4643	2
4644	3
4645	1
4646	3
4647	5
4648	7
4649	6
4650	4
4651	3
4652	3
4653	2
4654	3
4655	3
4656	7
4657	2
4658	1
4659	1
4660	4
4661	3
4662	3
4663	1
4664	2
4665	1
4666	1
4667	3
4668	1
4669	0
4670	6
4671	1
4672	1
4673	1
4674	0
4675	1
4676	3
4677	2
4678	5
4679	2
4680	2
4681	5
4682	1
4683	6
4684	9
4685	7
4686	7
4687	11
4688	11
4689	14
4690	20
4691	13
4692	15
4693	22
4694	20
4695	14
4696	15
4697	18
4698	14
4699	6
4700	11
4701	7
4702	8
4703	5
4704	6
4705	5
4706	1
4707	4
4708	2
4709	2
4710	5
4711	2
4712	3
4713	0
4714	4
4715	2
4716	7
4717	5
4718	0
4719	2
4720	2
4721	3
4722	4
4723	4
4724	2
4725	2
4726	1
4727	3
4728	2
4729	5
4730	4
4731	3
4732	1
4733	6
4734	3
4735	5
4736	4
4737	1
4738	6
4739	1
4740	3
4741	2
4742	5
4743	3
4744	3
4745	1
4746	0
4747	2
4748	1
4749	1
4750	6
4751	4
4752	1
4753	1
4754	5
4755	2
4756	0
4757	5
4758	4
4759	4
4760	3
4761	4
4762	1
4763	4
4764	2
4765	6
4766	1
4767	0
4768	5
4769	1
4770	0
4771	3
4772	4
4773	4
4774	2
4775	7
4776	5
4777	4
4778	9
4779	1
4780	5
4781	5
4782	4
4783	2
4784	4
4785	3
4786	6
4787	4
4788	4
4789	4
4790	1
4791	4
4792	2
4793	2
4794	4
4795	2
4796	4
4797	2
4798	4
4799	2
4800	4
4801	5
4802	4
4803	5
4804	5
4805	6
4806	4
4807	5
4808	3
4809	3
4810	2
4811	3
4812	6
4813	2
4814	6
4815	6
4816	3
4817	3
4818	6
4819	6
4820	6
4821	7
4822	3
4823	9
4824	3
4825	2
4826	0
4827	4
4828	5
4829	3
4830	2
4831	3
4832	3
4833	1
4834	3
4835	2
4836	6
4837	4
4838	3
4839	0
4840	4
4841	4
4842	4
4843	2
4844	4
4845	3
4846	2
4847	3
4848	3
4849	2
4850	3
4851	3
4852	5
4853	4
4854	0
4855	7
4856	7
4857	3
4858	1
4859	2
4860	3
4861	7
4862	2
4863	5
4864	1
4865	3
4866	6
4867	2
4868	0
4869	3
4870	2
4871	1
4872	1
4873	2
4874	3
4875	2
4876	2
4877	5
4878	3
4879	1
4880	3
4881	1
4882	3
4883	7
4884	2
4885	4
4886	1
4887	0
4888	1
4889	5
4890	6
4891	5
4892	4
4893	2
4894	4
4895	5
4896	4
4897	4
4898	7
4899	1
4900	4
4901	1
4902	4
4903	5
4904	3
4905	2
4906	3
4907	0
4908	6
4909	4
4910	5
4911	1
4912	2
4913	4
4914	1
4915	7
4916	2
4917	5
4918	6
4919	0
4920	3
4921	2
4922	6
4923	2
4924	3
4925	1
4926	2
4927	1
4928	3
4929	1
4930	11
4931	3
4932	2
4933	2
4934	2
4935	2
4936	1
4937	0
4938	2
4939	2
4940	8
4941	4
4942	1
4943	4
4944	1
4945	1
4946	3
4947	2
4948	2
4949	3
4950	8
4951	5
4952	2
4953	2
4954	2
4955	3
4956	3
4957	5
4958	3
4959	3
4960	6
4961	3
4962	5
4963	5
4964	3
4965	3
4966	2
4967	1
4968	1
4969	5
4970	3
4971	8
4972	4
4973	4
4974	0
4975	2
4976	3
4977	4
4978	4
4979	5
4980	1
4981	1
4982	6
4983	1
4984	4
4985	1
4986	3
4987	4
4988	3
4989	6
4990	5
4991	4
4992	4
4993	4
4994	2
4995	4
4996	0
4997	7
4998	4
4999	3
5000	1
5001	3
5002	7
5003	6
5004	3
5005	3
5006	6
5007	3
5008	1
5009	2
5010	3
5011	3
5012	0
5013	5
5014	2
5015	4
5016	3
5017	4
5018	2
5019	1
5020	4
5021	3
5022	4
5023	5
5024	4
5025	1
5026	3
5027	4
5028	0
5029	4
5030	5
5031	3
5032	1
5033	3
5034	2
5035	1
5036	2
5037	2
5038	5
5039	3
5040	3
5041	2
5042	4
5043	2
5044	4
5045	8
5046	1
5047	5
5048	3
5049	2
5050	4
5051	3
5052	1
5053	3
5054	3
5055	3
5056	2
5057	5
5058	2
5059	4
5060	6
5061	1
5062	3
5063	7
5064	2
5065	5
5066	1
5067	0
5068	2
5069	4
5070	1
5071	6
5072	5
5073	5
5074	4
5075	2
5076	3
5077	6
5078	1
5079	2
5080	5
5081	7
5082	1
5083	3
5084	2
5085	5
5086	1
5087	3
5088	3
5089	3
5090	3
5091	2
5092	3
5093	2
5094	4
5095	4
5096	5
5097	1
5098	3
5099	3
5100	4
5101	5
5102	2
5103	4
5104	1
5105	4
5106	6
5107	0
5108	2
5109	4
5110	5
5111	1
5112	3
5113	4
5114	5
5115	4
5116	2
5117	1
5118	2
5119	2
5120	2
5121	3
5122	3
5123	3
5124	4
5125	3
5126	6
5127	3
5128	3
5129	2
5130	1
5131	2
5132	2
5133	3
5134	4
5135	3
5136	2
5137	2
5138	3
5139	6
5140	2
5141	3
5142	1
5143	5
5144	2
5145	4
5146	3
5147	4
5148	4
5149	2
5150	3
5151	8
5152	1
5153	4
5154	3
5155	3
5156	3
5157	1
5158	1
5159	4
5160	2
5161	4
5162	6
5163	3
5164	2
5165	7
5166	4
5167	1
5168	4
5169	5
5170	3
5171	2
5172	2
5173	6
5174	2
5175	0
5176	3
5177	3
5178	3
5179	4
5180	2
5181	5
5182	3
5183	2
5184	3
5185	1
5186	1
5187	3
5188	2
5189	1
5190	7
5191	4
5192	3
5193	2
5194	2
5195	2
5196	4
5197	1
5198	5
5199	2
5200	6
5201	4
5202	3
5203	2
5204	0
5205	7
5206	5
5207	2
5208	7
5209	6
5210	1
5211	3
5212	2
5213	3
5214	5
5215	4
5216	3
5217	2
5218	2
5219	3
5220	3
5221	3
5222	2
5223	1
5224	3
5225	4
5226	0
5227	2
5228	2
5229	7
5230	6
5231	6
5232	5
5233	5
5234	2
5235	2
5236	7
5237	4
5238	3
5239	2
5240	2
5241	2
5242	3
5243	2
5244	1
5245	4
5246	4
5247	4
5248	2
5249	5
5250	4
5251	5
5252	3
5253	1
5254	7
5255	2
5256	5
5257	2
5258	2
5259	5
5260	2
5261	2
5262	1
5263	4
5264	3
5265	3
5266	2
5267	3
5268	2
5269	1
5270	1
5271	6
5272	4
5273	2
5274	4
5275	1
5276	5
5277	1
5278	1
5279	3
5280	2
5281	1
5282	3
5283	2
5284	1
5285	5
5286	1
5287	4
5288	5
5289	5
5290	3
5291	4
5292	7
5293	4
5294	2
5295	2
5296	5
5297	1
5298	4
5299	0
5300	4
5301	3
5302	0
5303	3
5304	6
5305	3
5306	2
5307	1
5308	3
5309	3
5310	2
5311	0
5312	3
5313	3
5314	1
5315	5
5316	2
5317	2
5318	1
5319	2
5320	3
5321	3
5322	1
5323	2
5324	6
5325	1
5326	3
5327	3
5328	2
5329	1
5330	3
5331	1
5332	3
5333	3
5334	3
5335	2
5336	3
5337	2
5338	6
5339	3
5340	1
5341	5
5342	3
5343	2
5344	0
5345	4
5346	2
5347	6
5348	1
5349	4
5350	2
5351	6
5352	1
5353	2
5354	1
5355	1
5356	2
5357	1
5358	6
5359	1
5360	9
5361	2
5362	6
5363	6
5364	5
5365	1
5366	0
5367	2
5368	0
5369	1
5370	1
5371	5
5372	2
5373	6
5374	6
5375	1
5376	3
5377	2
5378	2
5379	2
5380	5
5381	5
5382	3
5383	1
5384	2
5385	5
5386	6
5387	3
5388	2
5389	2
5390	6
5391	0
5392	0
5393	1
5394	2
5395	7
5396	2
5397	4
5398	3
5399	5
5400	3
5401	4
5402	2
5403	4
5404	3
5405	1
5406	4
5407	2
5408	1
5409	3
5410	5
5411	2
5412	2
5413	4
5414	1
5415	3
5416	1
5417	1
5418	1
5419	1
5420	0
5421	1
5422	1
5423	1
5424	1
5425	3
5426	2
5427	4
5428	3
5429	3
5430	2
5431	4
5432	0
5433	3
5434	3
5435	3
5436	1
5437	6
5438	5
5439	2
5440	0
5441	2
5442	6
5443	4
5444	4
5445	2
5446	4
5447	2
5448	4
5449	3
5450	2
5451	2
5452	3
5453	6
5454	3
5455	3
5456	7
5457	4
5458	6
5459	2
5460	3
5461	4
5462	4
5463	0
5464	0
5465	3
5466	3
5467	5
5468	2
5469	3
5470	1
5471	3
5472	4
5473	3
5474	1
5475	2
5476	5
5477	3
5478	4
5479	2
5480	3
5481	2
5482	3
5483	5
5484	4
5485	2
5486	4
5487	2
5488	3
5489	8
5490	5
5491	3
5492	2
5493	2
5494	3
5495	2
5496	3
5497	5
5498	2
5499	1
5500	5
5501	2
5502	3
5503	3
5504	2
5505	2
5506	3
5507	3
5508	3
5509	2
5510	0
5511	2
5512	0
5513	6
5514	5
5515	1
5516	5
5517	1
5518	2
5519	4
5520	2
5521	2
5522	3
5523	1
5524	4
5525	1
5526	1
5527	4
5528	4
5529	5
5530	0
5531	1
5532	1
5533	2
5534	2
5535	3
5536	3
5537	1
5538	3
5539	1
5540	2
5541	2
5542	2
5543	0
5544	1
5545	5
5546	5
5547	1
5548	1
5549	3
5550	1
5551	4
5552	5
5553	2
5554	0
5555	3
5556	4
5557	1
5558	5
5559	2
5560	4
5561	1
5562	2
5563	1
5564	1
5565	4
5566	5
5567	1
5568	1
5569	4
5570	1
5571	1
5572	2
5573	2
5574	3
5575	1
5576	3
5577	3
5578	1
5579	2
5580	1
5581	4
5582	4
5583	3
5584	5
5585	4
5586	5
5587	2
5588	1
5589	3
5590	2
5591	3
5592	4
5593	1
5594	3
5595	2
5596	2
5597	3
5598	3
5599	5
5600	3
5601	2
5602	2
5603	0
5604	0
5605	0
5606	2
5607	3
5608	3
5609	4
5610	3
5611	4
5612	3
5613	0
5614	5
5615	4
5616	2
5617	1
5618	3
5619	3
5620	0
5621	3
5622	3
5623	3
5624	3
5625	2
5626	3
5627	2
5628	5
5629	4
5630	3
5631	1
5632	3
5633	4
5634	6
5635	2
5636	3
5637	4
5638	2
5639	3
5640	3
5641	2
5642	0
5643	2
5644	3
5645	2
5646	4
5647	2
5648	1
5649	1
5650	2
5651	7
5652	0
5653	3
5654	1
5655	2
5656	1
5657	1
5658	1
5659	1
5660	4
5661	3
5662	3
5663	0
5664	2
5665	3
5666	4
5667	3
5668	3
5669	0
5670	5
5671	2
5672	2
5673	2
5674	0
5675	3
5676	1
5677	5
5678	3
5679	8
5680	2
5681	4
5682	2
5683	3
5684	1
5685	0
5686	3
5687	2
5688	2
5689	5
5690	2
5691	4
5692	0
5693	1
5694	3
5695	1
5696	2
5697	2
5698	4
5699	1
5700	1
5701	6
5702	4
5703	2
5704	3
5705	4
5706	3
5707	1
5708	7
5709	2
5710	1
5711	6
5712	5
5713	1
5714	3
5715	1
5716	1
5717	5
5718	0
5719	3
5720	7
5721	2
5722	2
5723	0
5724	3
5725	4
5726	1
5727	4
5728	4
5729	1
5730	3
5731	2
5732	2
5733	6
5734	4
5735	3
5736	3
5737	7
5738	0
5739	2
5740	4
5741	0
5742	2
5743	1
5744	5
5745	4
5746	2
5747	1
5748	1
5749	6
5750	5
5751	1
5752	2
5753	1
5754	1
5755	2
5756	1
5757	3
5758	5
5759	0
5760	4
5761	4
5762	0
5763	2
5764	2
5765	2
5766	1
5767	4
5768	2
5769	2
5770	1
5771	2
5772	2
5773	3
5774	2
5775	2
5776	1
5777	1
5778	3
5779	5
5780	2
5781	4
5782	1
5783	3
5784	4
5785	1
5786	1
5787	2
5788	2
5789	1
5790	2
5791	0
5792	6
5793	4
5794	4
5795	1
5796	7
5797	1
5798	5
5799	3
5800	6
5801	2
5802	3
5803	4
5804	1
5805	3
5806	4
5807	1
5808	3
5809	2
5810	2
5811	2
5812	6
5813	2
5814	4
5815	4
5816	2
5817	2
5818	5
5819	4
5820	3
5821	6
5822	1
5823	4
5824	1
5825	10
5826	3
5827	4
5828	1
5829	2
5830	4
5831	2
5832	2
5833	2
5834	6
5835	1
5836	4
5837	4
5838	2
5839	3
5840	1
5841	4
5842	3
5843	4
5844	4
5845	2
5846	2
5847	2
5848	3
5849	5
5850	3
5851	5
5852	1
5853	3
5854	3
5855	2
5856	4
5857	3
5858	5
5859	3
5860	3
5861	2
5862	2
5863	1
5864	4
5865	7
5866	2
5867	3
5868	4
5869	2
5870	1
5871	6
5872	3
5873	3
5874	4
5875	4
5876	3
5877	4
5878	2
5879	4
5880	1
5881	2
5882	2
5883	6
5884	2
5885	5
5886	7
5887	4
5888	2
5889	5
5890	4
5891	6
5892	2
5893	8
5894	4
5895	7
5896	3
5897	1
5898	3
5899	0
5900	3
5901	5
5902	6
5903	5
5904	6
5905	3
5906	3
5907	5
5908	1
5909	2
5910	3
5911	4
5912	1
5913	4
5914	3
5915	4
5916	3
5917	3
5918	3
5919	4
5920	3
5921	6
5922	5
5923	3
5924	4
5925	3
5926	5
5927	3
5928	6
5929	8
5930	3
5931	1
5932	4
5933	6
5934	3
5935	4
5936	1
5937	4
5938	3
5939	4
5940	2
5941	4
5942	5
5943	3
5944	4
5945	1
5946	2
5947	3
5948	4
5949	1
5950	6
5951	3
5952	4
5953	2
5954	5
5955	7
5956	3
5957	4
5958	3
5959	3
5960	3
5961	8
5962	2
5963	2
5964	1
5965	6
5966	6
5967	4
5968	3
5969	3
5970	2
5971	7
5972	6
5973	5
5974	3
5975	3
5976	4
5977	4
5978	3
5979	5
5980	3
5981	5
5982	4
5983	3
5984	5
5985	2
5986	2
5987	2
5988	1
5989	7
5990	2
5991	9
5992	5
5993	2
5994	3
5995	4
5996	3
5997	4
5998	5
5999	4
6000	6
6001	6
6002	2
6003	2
6004	6
6005	4
6006	4
6007	6
6008	4
6009	3
6010	2
6011	0
6012	4
6013	3
6014	1
6015	5
6016	4
6017	3
6018	4
6019	2
6020	0
6021	2
6022	2
6023	6
6024	5
6025	5
6026	2
6027	3
6028	3
6029	3
6030	3
6031	1
6032	2
6033	3
6034	4
6035	3
6036	3
6037	4
6038	2
6039	5
6040	1
6041	1
6042	3
6043	3
6044	2
6045	2
6046	1
6047	4
6048	1
6049	0
6050	2
6051	2
6052	1
6053	2
6054	2
6055	1
6056	0
6057	0
6058	3
6059	3
6060	2
6061	2
6062	3
6063	2
6064	0
6065	3
6066	1
6067	0
6068	4
6069	0
6070	4
6071	4
6072	2
6073	3
6074	1
6075	4
6076	4
6077	1
6078	1
6079	2
6080	3
6081	1
6082	1
6083	4
6084	0
6085	4
6086	3
6087	0
6088	1
6089	1
6090	2
6091	1
6092	4
6093	1
6094	4
6095	2
6096	1
6097	3
6098	1
6099	3
6100	3
6101	3
6102	3
6103	3
6104	3
6105	1
6106	3
6107	0
6108	2
6109	1
6110	2
6111	1
6112	4
6113	4
6114	4
6115	1
6116	3
6117	1
6118	1
6119	4
6120	4
6121	1
6122	2
6123	2
6124	2
6125	2
6126	1
6127	2
6128	0
6129	1
6130	0
6131	2
6132	1
6133	2
6134	1
6135	4
6136	2
6137	0
6138	0
6139	0
6140	2
6141	2
6142	2
6143	3
6144	1
6145	1
6146	2
6147	4
6148	1
6149	3
6150	2
6151	1
6152	0
6153	2
6154	1
6155	3
6156	1
6157	1
6158	2
6159	1
6160	3
6161	3
6162	0
6163	2
6164	0
6165	0
6166	2
6167	0
6168	4
6169	2
6170	1
6171	2
6172	2
6173	1
6174	3
6175	1
6176	2
6177	2
6178	2
6179	0
6180	2
6181	0
6182	1
6183	0
6184	2
6185	0
6186	2
6187	1
6188	0
6189	0
6190	1
6191	0
6192	2
6193	0
6194	2
6195	1
6196	0
6197	1
6198	1
6199	1
6200	1
6201	1
6202	0
6203	0
6204	2
6205	4
6206	1
6207	1
6208	0
6209	2
6210	2
6211	1
6212	2
6213	0
6214	3
6215	0
6216	1
6217	1
6218	2
6219	2
6220	0
6221	2
6222	2
6223	2
6224	0
6225	2
6226	0
6227	0
6228	0
6229	0
6230	0
6231	0
6232	2
6233	0
6234	1
6235	0
6236	2
6237	1
6238	0
6239	1
6240	0
6241	0
6242	1
6243	1
6244	2
6245	0
6246	1
6247	0
6248	1
6249	1
6250	2
6251	0
6252	1
6253	0
6254	0
6255	1
6256	2
6257	0
6258	0
6259	1
6260	0
6261	0
6262	1
6263	2
6264	1
6265	0
6266	1
6267	1
6268	2
6269	1
6270	0
6271	0
6272	1
6273	0
6274	0
6275	1
6276	0
6277	0
6278	1
6279	0
6280	1
6281	0
6282	1
6283	0
6284	0
6285	1
6286	0
6287	1
6288	0
6289	1
6290	1
6291	1
6292	1
6293	0
6294	0
6295	0
6296	1
6297	0
6298	0
6299	1
6300	0
6301	0
6302	0
6303	0
6304	0
6305	1
6306	0
6307	0
6308	0
6309	1
6310	0
6311	0
6312	0
6313	2
6314	0
6315	0
6316	0
6317	0
6318	0
6319	0
6320	3
6321	0
6322	0
6323	2
6324	0
6325	0
6326	1
6327	0
6328	0
6329	0
6330	0
6331	0
6332	0
6333	2
6334	0
6335	0
6336	0
6337	0
6338	1
6339	1
6340	0
6341	0
6342	0
6343	0
6344	0
6345	0
6346	0
6347	0
6348	0
6349	0
6350	3
6351	0
6352	0
6353	0
6354	0
6355	0
6356	0
6357	0
6358	0
6359	0
6360	1
6361	1
6362	2
6363	2
6364	0
6365	1
6366	0
6367	3
6368	0
6369	1
6370	0
6371	0
6372	1
6373	0
6374	1
6375	0
6376	0
6377	0
6378	0
6379	1
6380	1
6381	0
6382	1
6383	1
6384	0
6385	2
6386	2
6387	0
6388	0
6389	0
6390	0
6391	1
6392	1
6393	0
6394	1
6395	0
6396	0
6397	1
6398	0
6399	1
6400	0
6401	0
6402	0
6403	0
6404	2
6405	1
6406	0
6407	1
6408	0
6409	0
6410	0
6411	0
6412	0
6413	2
6414	0
6415	1
6416	0
6417	0
6418	0
6419	0
6420	0
6421	1
6422	0
6423	0
6424	0
6425	0
6426	0
6427	0
6428	0
6429	1
6430	0
6431	0
6432	2
6433	0
6434	0
6435	1
6436	0
6437	0
6438	0
6439	0
6440	0
6441	0
6442	0
6443	1
6444	0
6445	0
6446	0
6447	0
6448	0
6449	1
6450	0
6451	0
6452	0
6453	0
6454	0
6455	1
6456	0
6457	0
6458	0
6459	0
6460	0
6461	0
6462	0
6463	0
6464	1
6465	0
6466	1
6467	0
6468	1
6469	1
6470	0
6471	0
6472	1
6473	1
6474	1
6475	0
6476	1
6477	0
6478	0
6479	0
6480	0
6481	0
6482	0
6483	0
6484	2
6485	0
6486	0
6487	0
6488	0
6489	1
6490	0
6491	0
6492	0
6493	0
6494	0
6495	0
6496	0
6497	1
6498	0
6499	0
6500	0
6501	0
6502	0
6503	0
6504	0
6505	0
6506	1
6507	0
6508	0
6509	0
6510	0
6511	1
6512	0
6513	0
6514	0
6515	0
6516	0
6517	0
6518	0
6519	0
6520	1
6521	0
6522	0
6523	0
6524	1
6525	0
6526	0
6527	1
6528	0
6529	0
6530	1
6531	0
6532	0
6533	1
6534	0
6535	1
6536	0
6537	0
6538	1
6539	1
6540	0
6541	0
6542	0
6543	0
6544	0
6545	1
6546	1
6547	1
6548	1
6549	2
6550	0
6551	2
6552	1
6553	4
6554	7
6555	16
6556	44
6557	44
6558	76
6559	68
6560	86
6561	88
6562	87
6563	59
6564	46
6565	17
6566	12
6567	3
6568	2
6569	0
6570	0
6571	0
6572	0
6573	0
6574	0
6575	0
6576	0
6577	0
6578	0
6579	0
6580	0
6581	0
6582	0
6583	0
6584	0
6585	0
6586	0
6587	1
6588	1
6589	0
6590	0
6591	0
6592	0
6593	0
6594	0
6595	0
6596	0
6597	0
6598	0
6599	0
6600	0
6601	0
6602	0
6603	1
6604	0
6605	0
6606	0
6607	0
6608	0
6609	0
6610	0
6611	0
6612	0
6613	0
6614	1
6615	1
6616	1
6617	0
6618	0
6619	0
6620	0
6621	0
6622	0
6623	0
6624	0
6625	0
6626	0
6627	0
6628	0
6629	0
6630	0
6631	0
6632	0
6633	0
6634	0
6635	0
6636	0
6637	0
6638	0
6639	0
6640	0
6641	0
6642	0
6643	0
6644	0
6645	0
6646	0
6647	0
6648	0
6649	0
6650	0
6651	0
6652	0
6653	0
6654	0
6655	0
6656	0
6657	0
6658	0
6659	0
6660	0
6661	0
6662	0
6663	0
6664	0
6665	0
6666	0
6667	0
6668	0
6669	0
6670	0
6671	0
6672	0
6673	0
6674	0
6675	0
6676	0
6677	0
6678	1
6679	0
6680	0
6681	0
6682	0
6683	0
6684	0
6685	0
6686	0
6687	0
6688	0
6689	0
6690	0
6691	0
6692	0
6693	0
6694	0
6695	0
6696	0
6697	0
6698	0
6699	0
6700	0
6701	0
6702	0
6703	0
6704	0
6705	0
6706	0
6707	0
6708	0
6709	0
6710	0
6711	0
6712	0
6713	0
6714	0
6715	0
6716	0
6717	0
6718	0
6719	0
6720	0
6721	0
6722	0
6723	0
6724	0
6725	0
6726	0
6727	0
6728	0
6729	0
6730	0
6731	0
6732	0
6733	0
6734	0
6735	0
6736	0
6737	0
6738	0
6739	0
6740	0
6741	0
6742	0
6743	0
6744	0
6745	0
6746	0
6747	0
6748	0
6749	0
6750	0
6751	0
6752	0
6753	0
6754	0
6755	1
6756	0
6757	0
6758	0
6759	0
6760	0
6761	1
6762	0
6763	0
6764	0
6765	0
6766	0
6767	0
6768	0
6769	0
6770	0
6771	0
6772	0
6773	0
6774	0
6775	0
6776	0
6777	0
6778	0
6779	0
6780	0
6781	0
6782	0
6783	0
6784	0
6785	1
6786	1
6787	0
6788	0
6789	0
6790	0
6791	0
6792	1
6793	0
6794	0
6795	0
6796	0
6797	0
6798	0
6799	0
6800	0
6801	0
6802	0
6803	0
6804	0
6805	0
6806	0
6807	0
6808	0
6809	1
6810	0
6811	1
6812	0
6813	0
6814	0
6815	0
6816	0
6817	0
6818	0
6819	0
6820	0
6821	0
6822	0
6823	0
6824	0
6825	0
6826	0
6827	0
6828	0
6829	0
6830	1
6831	0
6832	0
6833	0
6834	0
6835	0
6836	0
6837	0
6838	1
6839	0
6840	0
6841	1
6842	0
6843	0
6844	1
6845	0
6846	0
6847	0
6848	0
6849	0
6850	0
6851	0
6852	0
6853	0
6854	0
6855	0
6856	0
6857	0
6858	0
6859	0
6860	0
6861	0
6862	0
6863	0
6864	0
6865	0
6866	0
6867	0
6868	0
6869	0
6870	0
6871	0
6872	0
6873	0
6874	0
6875	0
6876	0
6877	0
6878	0
6879	0
6880	0
6881	0
6882	0
6883	0
6884	0
6885	0
6886	0
6887	0
6888	0
6889	0
6890	0
6891	0
6892	0
6893	0
6894	0
6895	0
6896	0
6897	0
6898	0
6899	1
6900	0
6901	0
6902	0
6903	0
6904	0
6905	0
6906	0
6907	0
6908	0
6909	0
6910	0
6911	0
6912	0
6913	1
6914	0
6915	0
6916	0
6917	0
6918	0
6919	0
6920	0
6921	0
6922	0
6923	0
6924	0
6925	0
6926	0
6927	0
6928	0
6929	0
6930	0
6931	0
6932	0
6933	0
6934	0
6935	0
6936	0
6937	0
6938	0
6939	0
6940	0
6941	0
6942	0
6943	0
6944	0
6945	0
6946	0
6947	0
6948	0
6949	0
6950	0
6951	0
6952	0
6953	0
6954	0
6955	0
6956	0
6957	0
6958	0
6959	0
6960	1
6961	0
6962	0
6963	0
6964	1
6965	0
6966	0
6967	0
6968	0
6969	0
6970	1
6971	0
6972	1
6973	0
6974	0
6975	0
6976	0
6977	0
6978	0
6979	0
6980	0
6981	0
6982	0
6983	0
6984	0
6985	0
6986	0
6987	0
6988	0
6989	0
6990	0
6991	0
6992	0
6993	0
6994	0
6995	0
6996	0
6997	0
6998	0
6999	0
7000	0
7001	0
7002	0
7003	0
7004	0
7005	0
7006	0
7007	0
7008	0
7009	0
7010	0
7011	0
7012	0
7013	0
7014	0
7015	0
7016	0
7017	0
7018	0
7019	0
7020	0
7021	0
7022	0
7023	0
7024	0
7025	0
7026	0
7027	0
7028	0
7029	0
7030	2
7031	0
7032	0
7033	0
7034	0
7035	0
7036	0
7037	0
7038	0
7039	0
7040	0
7041	0
7042	0
7043	0
7044	0
7045	0
7046	0
7047	0
7048	0
7049	0
7050	0
7051	0
7052	0
7053	0
7054	0
7055	0
7056	0
7057	0
7058	0
7059	0
7060	0
7061	0
7062	0
7063	0
7064	0
7065	0
7066	0
7067	2
7068	0
7069	0
7070	0
7071	1
7072	0
7073	0
7074	0
7075	0
7076	0
7077	0
7078	0
7079	0
7080	0
7081	0
7082	0
7083	0
7084	0
7085	0
7086	0
7087	0
7088	0
7089	0
7090	0
7091	0
7092	0
7093	0
7094	0
7095	0
7096	0
7097	0
7098	0
7099	0
7100	0
7101	0
7102	1
7103	0
7104	0
7105	0
7106	0
7107	0
7108	0
7109	0
7110	0
7111	0
7112	0
7113	0
7114	0
7115	0
7116	0
7117	0
7118	0
7119	0
7120	0
7121	0
7122	0
7123	0
7124	0
7125	1
7126	0
7127	0
7128	0
7129	0
7130	0
7131	0
7132	0
7133	0
7134	0
7135	0
7136	0
7137	0
7138	0
7139	0
7140	0
7141	0
7142	0
7143	0
7144	0
7145	0
7146	0
7147	0
7148	0
7149	0
7150	0
7151	0
7152	0
7153	0
7154	0
7155	0
7156	0
7157	0
7158	0
7159	0
7160	0
7161	0
7162	0
7163	1
7164	0
7165	0
7166	0
7167	0
7168	0
7169	0
7170	0
7171	0
7172	0
7173	0
7174	0
7175	0
7176	0
7177	0
7178	0
7179	0
7180	0
7181	0
7182	0
7183	0
7184	0
7185	0
7186	0
7187	0
7188	0
7189	0
7190	0
7191	0
7192	0
7193	1
7194	0
7195	0
7196	0
7197	0
7198	0
7199	0
7200	0
7201	0
7202	0
7203	0
7204	0
7205	0
7206	0
7207	0
7208	0
7209	0
7210	0
7211	0
7212	0
7213	0
7214	0
7215	0
7216	0
7217	0
7218	0
7219	0
7220	0
7221	0
7222	0
7223	0
7224	0
7225	0
7226	0
7227	0
7228	0
7229	0
7230	0
7231	0
7232	0
7233	0
7234	0
7235	0
7236	0
7237	0
7238	0
7239	0
7240	0
7241	0
7242	0
7243	0
7244	0
7245	0
7246	0
7247	0
7248	0
7249	0
7250	0
7251	0
7252	0
7253	0
7254	0
7255	0
7256	0
7257	0
7258	0
7259	0
7260	0
7261	0
7262	0
7263	0
7264	0
7265	0
7266	0
7267	0
7268	0
7269	0
7270	0
7271	0
7272	0
7273	0
7274	0
7275	0
7276	0
7277	0
7278	0
7279	0
7280	0
7281	0
7282	0
7283	0
7284	0
7285	0
7286	0
7287	0
7288	0
7289	0
7290	0
7291	0
7292	0
7293	0
7294	0
7295	0
7296	0
7297	0
7298	0
7299	0
7300	0
7301	0
7302	0
7303	0
7304	0
7305	0
7306	0
7307	0
7308	0
7309	0
7310	0
7311	0
7312	0
7313	1
7314	0
7315	0
7316	0
7317	0
7318	0
7319	0
7320	0
7321	0
7322	0
7323	0
7324	0
7325	0
7326	0
7327	0
7328	0
7329	0
7330	0
7331	0
7332	0
7333	0
7334	0
7335	1
7336	0
7337	0
7338	0
7339	0
7340	0
7341	0
7342	0
7343	0
7344	0
7345	0
7346	0
7347	0
7348	0
7349	0
7350	0
7351	0
7352	0
7353	0
7354	0
7355	0
7356	0
7357	0
7358	0
7359	0
7360	0
7361	0
7362	0
7363	0
7364	0
7365	0
7366	0
7367	0
7368	0
7369	0
7370	1
7371	0
7372	0
7373	0
7374	0
7375	0
7376	0
7377	0
7378	0
7379	0
7380	0
7381	0
7382	0
7383	0
7384	0
7385	0
7386	0
7387	0
7388	0
7389	0
7390	0
7391	0
7392	0
7393	0
7394	0
7395	0
7396	0
7397	0
7398	0
7399	0
7400	0
7401	0
7402	0
7403	0
7404	0
7405	0
7406	0
7407	0
7408	0
7409	0
7410	0
7411	0
7412	0
7413	0
7414	0
7415	0
7416	0
7417	0
7418	1
7419	0
7420	0
7421	0
7422	0
7423	0
7424	0
7425	0
7426	0
7427	0
7428	0
7429	0
7430	0
7431	1
7432	0
7433	0
7434	0
7435	0
7436	0
7437	0
7438	0
7439	0
7440	0
7441	0
7442	0
7443	0
7444	0
7445	0
7446	0
7447	0
7448	0
7449	0
7450	0
7451	0
7452	0
7453	0
7454	0
7455	0
7456	0
7457	0
7458	0
7459	0
7460	0
7461	0
7462	0
7463	0
7464	0
7465	0
7466	0
7467	0
7468	0
7469	0
7470	0
7471	0
7472	1
7473	0
7474	0
7475	0
7476	0
7477	0
7478	0
7479	0
7480	0
7481	0
7482	0
7483	0
7484	0
7485	0
7486	0
7487	0
7488	2
7489	0
7490	0
7491	0
7492	0
7493	0
7494	0
7495	0
7496	0
7497	0
7498	0
7499	0
7500	0
7501	0
7502	0
7503	0
7504	0
7505	0
7506	0
7507	0
7508	0
7509	0
7510	0
7511	0
7512	0
7513	0
7514	0
7515	0
7516	0
7517	0
7518	0
7519	0
7520	0
7521	0
7522	0
7523	0
7524	0
7525	0
7526	0
7527	0
7528	0
7529	0
7530	0
7531	0
7532	0
7533	0
7534	0
7535	0
7536	0
7537	0
7538	0
7539	0
7540	0
7541	0
7542	0
7543	0
7544	0
7545	0
7546	0
7547	0
7548	0
7549	0
7550	0
7551	0
7552	0
7553	0
7554	0
7555	0
7556	0
7557	0
7558	0
7559	0
7560	0
7561	0
7562	0
7563	0
7564	0
7565	0
7566	0
7567	0
7568	0
7569	0
7570	0
7571	0
7572	0
7573	0
7574	0
7575	0
7576	0
7577	0
7578	0
7579	0
7580	0
7581	0
7582	0
7583	0
7584	0
7585	0
7586	0
7587	0
7588	0
7589	0
7590	0
7591	0
7592	0
7593	0
7594	0
7595	0
7596	0
7597	0
7598	0
7599	0
7600	0
7601	0
7602	0
7603	0
7604	0
7605	0
7606	0
7607	0
7608	0
7609	0
7610	0
7611	0
7612	0
7613	0
7614	0
7615	0
7616	0
7617	0
7618	0
7619	0
7620	0
7621	0
7622	0
7623	0
7624	0
7625	0
7626	0
7627	0
7628	0
7629	0
7630	0
7631	0
7632	0
7633	0
7634	0
7635	0
7636	0
7637	0
7638	0
7639	0
7640	0
7641	1
7642	0
7643	0
7644	0
7645	0
7646	0
7647	0
7648	0
7649	0
7650	0
7651	0
7652	0
7653	0
7654	0
7655	0
7656	0
7657	0
7658	0
7659	0
7660	0
7661	0
7662	0
7663	0
7664	0
7665	0
7666	0
7667	1
7668	0
7669	0
7670	0
7671	0
7672	0
7673	0
7674	0
7675	0
7676	0
7677	0
7678	0
7679	0
7680	0
7681	0
7682	0
7683	0
7684	0
7685	0
7686	0
7687	0
7688	0
7689	0
7690	0
7691	0
7692	0
7693	1
7694	0
7695	0
7696	0
7697	0
7698	0
7699	0
7700	0
7701	0
7702	0
7703	0
7704	0
7705	0
7706	0
7707	0
7708	0
7709	0
7710	0
7711	0
7712	0
7713	0
7714	0
7715	0
7716	0
7717	0
7718	0
7719	0
7720	0
7721	0
7722	0
7723	0
7724	0
7725	0
7726	0
7727	0
7728	0
7729	0
7730	0
7731	0
7732	0
7733	0
7734	0
7735	0
7736	0
7737	0
7738	0
7739	0
7740	0
7741	0
7742	0
7743	0
7744	0
7745	0
7746	1
7747	0
7748	0
7749	0
7750	0
7751	0
7752	0
7753	0
7754	0
7755	0
7756	0
7757	0
7758	0
7759	0
7760	0
7761	0
7762	0
7763	0
7764	0
7765	0
7766	0
7767	0
7768	0
7769	0
7770	0
7771	0
7772	0
7773	0
7774	0
7775	0
7776	0
7777	0
7778	0
7779	0
7780	0
7781	0
7782	0
7783	0
7784	0
7785	0
7786	0
7787	0
7788	0
7789	0
7790	0
7791	0
7792	0
7793	0
7794	0
7795	0
7796	0
7797	0
7798	0
7799	0
7800	0
7801	0
7802	0
7803	0
7804	0
7805	0
7806	0
7807	0
7808	0
7809	0
7810	0
7811	0
7812	0
7813	0
7814	0
7815	0
7816	0
7817	0
7818	0
7819	0
7820	0
7821	0
7822	0
7823	0
7824	0
7825	0
7826	0
7827	0
7828	0
7829	0
7830	0
7831	0
7832	0
7833	0
7834	0
7835	0
7836	0
7837	0
7838	0
7839	0
7840	0
7841	0
7842	0
7843	0
7844	0
7845	0
7846	0
7847	0
7848	0
7849	0
7850	0
7851	0
7852	0
7853	0
7854	0
7855	0
7856	0
7857	0
7858	0
7859	0
7860	0
7861	0
7862	0
7863	0
7864	0
7865	0
7866	0
7867	0
7868	0
7869	0
7870	0
7871	0
7872	0
7873	0
7874	1
7875	0
7876	0
7877	1
7878	0
7879	0
7880	0
7881	0
7882	0
7883	0
7884	0
7885	0
7886	0
7887	0
7888	0
7889	0
7890	0
7891	0
7892	0
7893	0
7894	0
7895	0
7896	0
7897	0
7898	0
7899	0
7900	0
7901	0
7902	0
7903	0
7904	0
7905	0
7906	0
7907	0
7908	0
7909	0
7910	0
7911	0
7912	0
7913	0
7914	0
7915	0
7916	0
7917	0
7918	0
7919	0
7920	0
7921	0
7922	0
7923	0
7924	0
7925	0
7926	0
7927	0
7928	0
7929	0
7930	0
7931	0
7932	0
7933	0
7934	0
7935	0
7936	0
7937	0
7938	0
7939	0
7940	0
7941	0
7942	0
7943	0
7944	0
7945	0
7946	0
7947	0
7948	0
7949	0
7950	0
7951	0
7952	0
7953	0
7954	0
7955	0
7956	0
7957	0
7958	0
7959	0
7960	0
7961	0
7962	0
7963	0
7964	0
7965	1
7966	0
7967	0
7968	0
7969	0
7970	0
7971	0
7972	0
7973	0
7974	0
7975	0
7976	0
7977	0
7978	0
7979	0
7980	0
7981	0
7982	0
7983	0
7984	0
7985	0
7986	0
7987	1
7988	0
7989	0
7990	0
7991	0
7992	0
7993	0
7994	0
7995	0
7996	0
7997	0
7998	0
7999	0
8000	0
8001	0
8002	0
8003	0
8004	0
8005	0
8006	0
8007	0
8008	0
8009	0
8010	0
8011	0
8012	0
8013	0
8014	0
8015	0
8016	0
8017	0
8018	0
8019	0
8020	0
8021	0
8022	0
8023	0
8024	0
8025	0
8026	0
8027	0
8028	0
8029	0
8030	0
8031	0
8032	0
8033	0
8034	0
8035	0
8036	0
8037	0
8038	0
8039	0
8040	0
8041	0
8042	0
8043	0
8044	0
8045	0
8046	0
8047	0
8048	0
8049	0
8050	0
8051	0
8052	0
8053	0
8054	0
8055	0
8056	0
8057	0
8058	0
8059	0
8060	0
8061	0
8062	0
8063	0
8064	0
8065	0
8066	0
8067	0
8068	0
8069	0
8070	0
8071	0
8072	0
8073	0
8074	0
8075	0
8076	0
8077	0
8078	0
8079	0
8080	0
8081	0
8082	0
8083	0
8084	0
8085	0
8086	0
8087	0
8088	0
8089	0
8090	0
8091	0
8092	0
8093	0
8094	0
8095	0
8096	0
8097	0
8098	0
8099	0
8100	0
8101	0
8102	0
8103	0
8104	0
8105	0
8106	0
8107	0
8108	0
8109	0
8110	0
8111	0
8112	0
8113	0
8114	0
8115	0
8116	0
8117	0
8118	0
8119	0
8120	0
8121	0
8122	0
8123	0
8124	0
8125	0
8126	0
8127	0
8128	0
8129	0
8130	0
8131	0
8132	0
8133	0
8134	0
8135	0
8136	0
8137	0
8138	0
8139	0
8140	0
8141	0
8142	0
8143	0
8144	0
8145	0
8146	0
8147	0
8148	0
8149	0
8150	0
8151	0
8152	0
8153	0
8154	0
8155	0
8156	0
8157	0
8158	0
8159	0
8160	0
8161	0
8162	0
8163	0
8164	0
8165	0
8166	0
8167	0
8168	0
8169	0
8170	0
8171	0
8172	0
8173	0
8174	0
8175	0
8176	0
8177	0
8178	0
8179	0
8180	0
8181	0
8182	0
8183	0
8184	0
8185	0
8186	0
8187	0
8188	0
8189	0
8190	0
8191	0
