0	0
1	0
2	0
3	0
4	0
5	0
6	0
7	0
8	0
9	0
10	0
11	0
12	0
13	0
14	0
15	0
16	0
17	0
18	0
19	0
20	0
21	0
22	0
23	0
24	0
25	0
26	0
27	0
28	0
29	0
30	0
31	0
32	0
33	0
34	0
35	0
36	0
37	0
38	0
39	0
40	0
41	0
42	0
43	0
44	0
45	0
46	0
47	0
48	0
49	0
50	0
51	0
52	0
53	0
54	0
55	0
56	0
57	0
58	0
59	0
60	0
61	0
62	0
63	0
64	0
65	0
66	0
67	0
68	0
69	0
70	0
71	0
72	0
73	0
74	0
75	0
76	0
77	0
78	0
79	0
80	0
81	0
82	0
83	0
84	0
85	0
86	0
87	0
88	0
89	0
90	0
91	0
92	0
93	0
94	0
95	0
96	0
97	0
98	0
99	0
100	0
101	0
102	0
103	0
104	0
105	0
106	0
107	0
108	0
109	0
110	0
111	0
112	0
113	0
114	0
115	0
116	0
117	2
118	56
119	294
120	504
121	669
122	680
123	605
124	657
125	635
126	595
127	562
128	614
129	639
130	600
131	600
132	616
133	580
134	626
135	604
136	559
137	593
138	574
139	555
140	553
141	602
142	560
143	580
144	559
145	597
146	552
147	540
148	554
149	557
150	588
151	566
152	570
153	528
154	527
155	541
156	533
157	537
158	543
159	502
160	543
161	573
162	523
163	555
164	590
165	545
166	470
167	544
168	552
169	525
170	536
171	479
172	503
173	515
174	487
175	526
176	501
177	501
178	563
179	509
180	516
181	450
182	540
183	517
184	517
185	529
186	509
187	496
188	514
189	505
190	508
191	508
192	492
193	468
194	491
195	488
196	492
197	491
198	475
199	496
200	538
201	480
202	493
203	462
204	491
205	516
206	494
207	442
208	506
209	504
210	452
211	509
212	514
213	529
214	432
215	502
216	452
217	509
218	475
219	496
220	461
221	487
222	509
223	475
224	464
225	461
226	472
227	458
228	483
229	487
230	458
231	486
232	495
233	489
234	485
235	465
236	477
237	433
238	496
239	444
240	489
241	480
242	460
243	493
244	470
245	458
246	447
247	458
248	462
249	454
250	514
251	471
252	470
253	522
254	434
255	525
256	457
257	457
258	509
259	477
260	464
261	506
262	489
263	478
264	500
265	478
266	450
267	497
268	462
269	459
270	442
271	483
272	482
273	451
274	455
275	433
276	460
277	493
278	448
279	519
280	476
281	474
282	489
283	481
284	454
285	479
286	455
287	473
288	501
289	492
290	480
291	451
292	462
293	469
294	466
295	449
296	427
297	454
298	476
299	469
300	525
301	475
302	483
303	459
304	457
305	469
306	463
307	471
308	466
309	469
310	470
311	483
312	446
313	480
314	454
315	489
316	462
317	459
318	494
319	495
320	484
321	450
322	517
323	462
324	461
325	480
326	452
327	449
328	461
329	450
330	478
331	490
332	472
333	503
334	508
335	456
336	483
337	485
338	480
339	491
340	484
341	449
342	512
343	432
344	465
345	482
346	480
347	480
348	489
349	468
350	507
351	460
352	480
353	454
354	436
355	477
356	469
357	471
358	489
359	452
360	499
361	460
362	451
363	432
364	512
365	473
366	474
367	477
368	516
369	477
370	468
371	491
372	491
373	517
374	517
375	465
376	439
377	477
378	489
379	515
380	504
381	560
382	776
383	978
384	1082
385	1010
386	697
387	554
388	489
389	494
390	478
391	487
392	485
393	502
394	478
395	461
396	487
397	537
398	524
399	445
400	472
401	472
402	491
403	482
404	486
405	477
406	450
407	486
408	486
409	463
410	466
411	503
412	494
413	491
414	474
415	455
416	500
417	493
418	465
419	504
420	478
421	570
422	552
423	530
424	507
425	498
426	512
427	515
428	500
429	538
430	483
431	485
432	481
433	459
434	469
435	520
436	491
437	496
438	497
439	504
440	462
441	515
442	481
443	472
444	486
445	473
446	505
447	462
448	489
449	474
450	458
451	501
452	479
453	517
454	467
455	464
456	462
457	523
458	501
459	469
460	490
461	512
462	511
463	473
464	472
465	436
466	480
467	442
468	544
469	504
470	472
471	481
472	516
473	494
474	471
475	469
476	504
477	496
478	504
479	513
480	483
481	523
482	487
483	515
484	476
485	501
486	530
487	534
488	452
489	473
490	482
491	478
492	489
493	503
494	491
495	508
496	526
497	495
498	524
499	531
500	535
501	486
502	473
503	471
504	506
505	488
506	500
507	524
508	525
509	467
510	531
511	561
512	520
513	538
514	529
515	563
516	510
517	543
518	553
519	583
520	529
521	503
522	530
523	540
524	569
525	520
526	576
527	549
528	542
529	564
530	535
531	546
532	526
533	541
534	545
535	567
536	542
537	545
538	537
539	520
540	524
541	530
542	595
543	578
544	505
545	596
546	575
547	606
548	643
549	663
550	671
551	604
552	611
553	558
554	651
555	629
556	643
557	645
558	676
559	587
560	618
561	669
562	599
563	631
564	625
565	633
566	605
567	627
568	648
569	618
570	629
571	610
572	607
573	635
574	622
575	623
576	632
577	616
578	648
579	593
580	592
581	578
582	541
583	636
584	592
585	580
586	571
587	575
588	577
589	603
590	522
591	548
592	594
593	584
594	610
595	568
596	552
597	592
598	556
599	535
600	574
601	518
602	523
603	543
604	583
605	513
606	567
607	577
608	555
609	525
610	590
611	574
612	518
613	606
614	551
615	574
616	559
617	621
618	577
619	611
620	576
621	590
622	592
623	587
624	607
625	637
626	612
627	637
628	670
629	608
630	638
631	594
632	626
633	611
634	666
635	556
636	607
637	638
638	583
639	627
640	617
641	583
642	613
643	605
644	584
645	588
646	634
647	658
648	589
649	557
650	597
651	566
652	554
653	607
654	563
655	565
656	562
657	561
658	567
659	582
660	585
661	545
662	548
663	540
664	573
665	523
666	574
667	548
668	551
669	564
670	539
671	530
672	570
673	547
674	566
675	552
676	534
677	504
678	509
679	452
680	486
681	540
682	541
683	544
684	518
685	534
686	514
687	536
688	541
689	505
690	508
691	505
692	548
693	486
694	497
695	496
696	511
697	482
698	512
699	517
700	471
701	516
702	519
703	544
704	492
705	524
706	497
707	513
708	507
709	518
710	533
711	480
712	527
713	503
714	521
715	490
716	495
717	485
718	517
719	495
720	495
721	496
722	511
723	507
724	453
725	502
726	507
727	502
728	519
729	488
730	456
731	501
732	470
733	451
734	480
735	480
736	526
737	495
738	486
739	499
740	457
741	490
742	462
743	502
744	488
745	501
746	481
747	481
748	479
749	478
750	477
751	484
752	477
753	441
754	474
755	512
756	507
757	481
758	476
759	498
760	503
761	516
762	462
763	460
764	501
765	469
766	513
767	458
768	488
769	527
770	489
771	483
772	477
773	439
774	491
775	498
776	472
777	498
778	481
779	451
780	484
781	470
782	467
783	473
784	507
785	503
786	452
787	529
788	485
789	451
790	502
791	469
792	469
793	498
794	508
795	479
796	440
797	508
798	432
799	462
800	477
801	476
802	461
803	457
804	462
805	507
806	475
807	466
808	485
809	489
810	463
811	528
812	471
813	455
814	462
815	479
816	445
817	488
818	488
819	458
820	481
821	467
822	396
823	496
824	472
825	453
826	483
827	435
828	501
829	466
830	466
831	477
832	470
833	481
834	447
835	474
836	478
837	467
838	500
839	449
840	451
841	497
842	479
843	463
844	493
845	475
846	471
847	463
848	476
849	482
850	470
851	519
852	492
853	467
854	444
855	487
856	461
857	467
858	526
859	499
860	447
861	450
862	471
863	461
864	455
865	495
866	472
867	463
868	454
869	433
870	497
871	543
872	501
873	505
874	460
875	468
876	462
877	465
878	462
879	449
880	456
881	509
882	475
883	450
884	445
885	452
886	505
887	439
888	453
889	445
890	500
891	487
892	436
893	509
894	450
895	483
896	458
897	453
898	441
899	456
900	473
901	476
902	473
903	464
904	461
905	517
906	496
907	467
908	442
909	459
910	480
911	505
912	483
913	503
914	449
915	454
916	481
917	482
918	454
919	466
920	440
921	497
922	465
923	479
924	437
925	441
926	447
927	422
928	461
929	479
930	443
931	479
932	506
933	448
934	431
935	430
936	480
937	476
938	476
939	502
940	423
941	500
942	450
943	416
944	479
945	477
946	456
947	469
948	446
949	465
950	430
951	441
952	431
953	462
954	445
955	451
956	432
957	412
958	445
959	463
960	439
961	436
962	441
963	423
964	450
965	438
966	464
967	435
968	402
969	401
970	456
971	419
972	422
973	391
974	420
975	400
976	412
977	399
978	403
979	445
980	380
981	428
982	409
983	429
984	451
985	450
986	435
987	436
988	439
989	397
990	390
991	393
992	427
993	467
994	437
995	400
996	366
997	394
998	431
999	398
1000	398
1001	463
1002	429
1003	412
1004	430
1005	387
1006	442
1007	428
1008	457
1009	424
1010	398
1011	389
1012	441
1013	437
1014	449
1015	406
1016	366
1017	361
1018	393
1019	401
1020	425
1021	437
1022	424
1023	403
1024	391
1025	440
1026	397
1027	423
1028	437
1029	420
1030	403
1031	394
1032	380
1033	388
1034	441
1035	413
1036	423
1037	397
1038	388
1039	390
1040	440
1041	408
1042	393
1043	437
1044	387
1045	392
1046	439
1047	382
1048	418
1049	409
1050	373
1051	440
1052	397
1053	399
1054	422
1055	418
1056	402
1057	354
1058	435
1059	394
1060	365
1061	427
1062	412
1063	359
1064	435
1065	387
1066	398
1067	388
1068	422
1069	408
1070	409
1071	410
1072	391
1073	396
1074	442
1075	390
1076	388
1077	433
1078	405
1079	378
1080	391
1081	413
1082	413
1083	397
1084	377
1085	381
1086	392
1087	399
1088	438
1089	400
1090	405
1091	401
1092	442
1093	413
1094	404
1095	432
1096	411
1097	417
1098	407
1099	414
1100	454
1101	400
1102	395
1103	466
1104	390
1105	402
1106	391
1107	441
1108	389
1109	426
1110	403
1111	396
1112	375
1113	445
1114	413
1115	403
1116	414
1117	395
1118	444
1119	422
1120	416
1121	412
1122	410
1123	439
1124	443
1125	414
1126	412
1127	400
1128	415
1129	389
1130	412
1131	406
1132	402
1133	427
1134	392
1135	421
1136	414
1137	405
1138	421
1139	427
1140	400
1141	370
1142	399
1143	413
1144	434
1145	419
1146	441
1147	408
1148	418
1149	404
1150	383
1151	435
1152	413
1153	450
1154	430
1155	438
1156	434
1157	451
1158	417
1159	392
1160	396
1161	449
1162	433
1163	456
1164	431
1165	426
1166	456
1167	432
1168	476
1169	423
1170	443
1171	456
1172	410
1173	409
1174	410
1175	421
1176	414
1177	411
1178	433
1179	412
1180	440
1181	432
1182	425
1183	439
1184	433
1185	443
1186	446
1187	423
1188	455
1189	441
1190	458
1191	453
1192	430
1193	416
1194	448
1195	444
1196	428
1197	432
1198	421
1199	459
1200	456
1201	466
1202	451
1203	477
1204	419
1205	442
1206	447
1207	421
1208	458
1209	430
1210	455
1211	472
1212	457
1213	475
1214	459
1215	442
1216	475
1217	432
1218	482
1219	437
1220	473
1221	480
1222	499
1223	449
1224	458
1225	460
1226	497
1227	519
1228	475
1229	483
1230	466
1231	471
1232	463
1233	452
1234	456
1235	483
1236	496
1237	482
1238	482
1239	500
1240	471
1241	476
1242	468
1243	475
1244	501
1245	476
1246	490
1247	483
1248	476
1249	497
1250	445
1251	458
1252	445
1253	469
1254	513
1255	509
1256	470
1257	464
1258	459
1259	485
1260	507
1261	493
1262	516
1263	496
1264	485
1265	477
1266	479
1267	504
1268	507
1269	490
1270	513
1271	542
1272	471
1273	540
1274	502
1275	499
1276	516
1277	544
1278	506
1279	488
1280	487
1281	498
1282	545
1283	533
1284	492
1285	479
1286	463
1287	493
1288	559
1289	492
1290	509
1291	495
1292	486
1293	443
1294	475
1295	475
1296	479
1297	471
1298	476
1299	473
1300	434
1301	450
1302	472
1303	445
1304	431
1305	380
1306	389
1307	427
1308	393
1309	388
1310	422
1311	404
1312	360
1313	412
1314	344
1315	369
1316	370
1317	352
1318	369
1319	374
1320	347
1321	365
1322	346
1323	333
1324	341
1325	348
1326	317
1327	355
1328	337
1329	357
1330	322
1331	324
1332	340
1333	363
1334	326
1335	317
1336	301
1337	338
1338	316
1339	330
1340	312
1341	339
1342	331
1343	319
1344	312
1345	323
1346	334
1347	324
1348	352
1349	348
1350	340
1351	290
1352	322
1353	332
1354	314
1355	303
1356	298
1357	328
1358	302
1359	317
1360	316
1361	320
1362	310
1363	310
1364	294
1365	319
1366	310
1367	299
1368	297
1369	303
1370	288
1371	287
1372	280
1373	314
1374	310
1375	283
1376	319
1377	290
1378	306
1379	303
1380	307
1381	314
1382	403
1383	525
1384	677
1385	959
1386	1447
1387	1945
1388	2657
1389	3465
1390	3928
1391	4043
1392	3762
1393	3124
1394	2529
1395	1718
1396	1219
1397	805
1398	561
1399	437
1400	349
1401	305
1402	330
1403	295
1404	250
1405	272
1406	232
1407	280
1408	275
1409	280
1410	248
1411	263
1412	242
1413	244
1414	283
1415	239
1416	249
1417	237
1418	262
1419	264
1420	252
1421	238
1422	260
1423	247
1424	247
1425	270
1426	253
1427	256
1428	255
1429	258
1430	242
1431	275
1432	241
1433	236
1434	235
1435	251
1436	248
1437	248
1438	244
1439	206
1440	246
1441	227
1442	222
1443	251
1444	221
1445	229
1446	221
1447	241
1448	227
1449	245
1450	247
1451	225
1452	207
1453	213
1454	234
1455	229
1456	236
1457	237
1458	219
1459	261
1460	228
1461	197
1462	215
1463	215
1464	224
1465	243
1466	194
1467	213
1468	251
1469	220
1470	212
1471	224
1472	198
1473	231
1474	237
1475	203
1476	219
1477	195
1478	217
1479	223
1480	212
1481	210
1482	227
1483	208
1484	216
1485	206
1486	220
1487	198
1488	212
1489	221
1490	179
1491	188
1492	220
1493	205
1494	205
1495	218
1496	198
1497	205
1498	208
1499	204
1500	203
1501	160
1502	222
1503	214
1504	211
1505	217
1506	201
1507	206
1508	225
1509	202
1510	191
1511	192
1512	212
1513	179
1514	196
1515	175
1516	195
1517	205
1518	192
1519	211
1520	194
1521	185
1522	216
1523	174
1524	213
1525	189
1526	209
1527	190
1528	181
1529	192
1530	184
1531	201
1532	188
1533	179
1534	169
1535	200
1536	208
1537	187
1538	180
1539	186
1540	201
1541	205
1542	190
1543	193
1544	183
1545	193
1546	197
1547	198
1548	177
1549	158
1550	195
1551	175
1552	185
1553	203
1554	191
1555	192
1556	175
1557	189
1558	200
1559	198
1560	199
1561	179
1562	190
1563	201
1564	183
1565	195
1566	185
1567	169
1568	221
1569	172
1570	170
1571	190
1572	189
1573	193
1574	193
1575	157
1576	179
1577	197
1578	200
1579	181
1580	173
1581	194
1582	185
1583	182
1584	191
1585	201
1586	168
1587	189
1588	184
1589	180
1590	189
1591	185
1592	171
1593	179
1594	194
1595	169
1596	185
1597	199
1598	184
1599	174
1600	197
1601	192
1602	185
1603	178
1604	180
1605	181
1606	179
1607	174
1608	185
1609	177
1610	186
1611	159
1612	176
1613	191
1614	200
1615	182
1616	176
1617	199
1618	190
1619	168
1620	171
1621	201
1622	199
1623	173
1624	175
1625	176
1626	179
1627	168
1628	180
1629	162
1630	170
1631	186
1632	180
1633	198
1634	189
1635	178
1636	177
1637	195
1638	181
1639	198
1640	181
1641	186
1642	175
1643	187
1644	174
1645	165
1646	181
1647	190
1648	190
1649	190
1650	165
1651	187
1652	183
1653	163
1654	195
1655	176
1656	171
1657	173
1658	183
1659	174
1660	177
1661	191
1662	175
1663	197
1664	166
1665	185
1666	170
1667	191
1668	181
1669	179
1670	156
1671	162
1672	159
1673	206
1674	195
1675	194
1676	165
1677	182
1678	196
1679	161
1680	190
1681	177
1682	203
1683	160
1684	178
1685	188
1686	174
1687	164
1688	186
1689	196
1690	186
1691	163
1692	194
1693	173
1694	184
1695	190
1696	193
1697	162
1698	166
1699	177
1700	162
1701	163
1702	169
1703	140
1704	178
1705	181
1706	168
1707	175
1708	154
1709	182
1710	185
1711	204
1712	202
1713	168
1714	182
1715	173
1716	167
1717	200
1718	197
1719	201
1720	194
1721	180
1722	187
1723	191
1724	153
1725	180
1726	179
1727	186
1728	183
1729	186
1730	173
1731	173
1732	177
1733	194
1734	177
1735	190
1736	173
1737	176
1738	198
1739	184
1740	171
1741	170
1742	196
1743	184
1744	165
1745	176
1746	183
1747	181
1748	195
1749	201
1750	184
1751	181
1752	188
1753	181
1754	184
1755	187
1756	193
1757	195
1758	209
1759	177
1760	176
1761	170
1762	183
1763	168
1764	193
1765	195
1766	182
1767	178
1768	183
1769	172
1770	209
1771	199
1772	228
1773	252
1774	352
1775	587
1776	1172
1777	2755
1778	6665
1779	13275
1780	20237
1781	23941
1782	22061
1783	15123
1784	7802
1785	2729
1786	840
1787	266
1788	198
1789	176
1790	156
1791	153
1792	150
1793	157
1794	157
1795	155
1796	142
1797	151
1798	146
1799	143
1800	140
1801	160
1802	145
1803	154
1804	167
1805	144
1806	140
1807	133
1808	151
1809	163
1810	153
1811	141
1812	147
1813	155
1814	152
1815	118
1816	137
1817	150
1818	157
1819	145
1820	139
1821	145
1822	123
1823	139
1824	155
1825	145
1826	143
1827	166
1828	150
1829	133
1830	123
1831	160
1832	160
1833	162
1834	132
1835	145
1836	146
1837	139
1838	141
1839	130
1840	143
1841	160
1842	158
1843	151
1844	121
1845	149
1846	142
1847	156
1848	135
1849	133
1850	134
1851	137
1852	151
1853	116
1854	141
1855	155
1856	156
1857	129
1858	131
1859	138
1860	118
1861	159
1862	145
1863	160
1864	130
1865	145
1866	160
1867	145
1868	182
1869	136
1870	119
1871	157
1872	143
1873	146
1874	160
1875	131
1876	144
1877	135
1878	153
1879	144
1880	141
1881	150
1882	159
1883	163
1884	147
1885	136
1886	136
1887	157
1888	135
1889	176
1890	140
1891	151
1892	141
1893	158
1894	137
1895	139
1896	151
1897	157
1898	140
1899	151
1900	132
1901	142
1902	136
1903	154
1904	149
1905	137
1906	167
1907	148
1908	146
1909	131
1910	161
1911	142
1912	146
1913	150
1914	131
1915	137
1916	154
1917	150
1918	149
1919	143
1920	158
1921	141
1922	144
1923	124
1924	157
1925	129
1926	147
1927	140
1928	144
1929	140
1930	138
1931	141
1932	139
1933	161
1934	145
1935	142
1936	158
1937	155
1938	153
1939	141
1940	150
1941	149
1942	149
1943	153
1944	177
1945	160
1946	163
1947	142
1948	156
1949	137
1950	137
1951	148
1952	153
1953	156
1954	160
1955	160
1956	154
1957	155
1958	156
1959	135
1960	152
1961	155
1962	139
1963	153
1964	146
1965	132
1966	169
1967	159
1968	155
1969	117
1970	156
1971	142
1972	138
1973	160
1974	159
1975	148
1976	169
1977	151
1978	149
1979	121
1980	173
1981	127
1982	157
1983	132
1984	144
1985	148
1986	158
1987	163
1988	150
1989	115
1990	150
1991	158
1992	169
1993	127
1994	151
1995	153
1996	143
1997	156
1998	138
1999	156
2000	135
2001	157
2002	149
2003	140
2004	141
2005	139
2006	127
2007	146
2008	165
2009	152
2010	158
2011	171
2012	142
2013	140
2014	153
2015	147
2016	166
2017	134
2018	136
2019	138
2020	138
2021	142
2022	150
2023	141
2024	161
2025	145
2026	169
2027	153
2028	147
2029	132
2030	148
2031	172
2032	142
2033	147
2034	147
2035	154
2036	152
2037	165
2038	171
2039	149
2040	159
2041	176
2042	154
2043	134
2044	135
2045	140
2046	147
2047	169
2048	152
2049	159
2050	149
2051	158
2052	152
2053	157
2054	149
2055	175
2056	142
2057	150
2058	159
2059	145
2060	141
2061	147
2062	169
2063	133
2064	174
2065	145
2066	154
2067	139
2068	141
2069	163
2070	147
2071	151
2072	132
2073	144
2074	156
2075	166
2076	174
2077	154
2078	180
2079	151
2080	160
2081	152
2082	165
2083	164
2084	146
2085	151
2086	153
2087	158
2088	149
2089	127
2090	168
2091	140
2092	152
2093	142
2094	119
2095	147
2096	160
2097	140
2098	147
2099	169
2100	156
2101	157
2102	175
2103	184
2104	166
2105	164
2106	164
2107	145
2108	166
2109	133
2110	162
2111	147
2112	153
2113	178
2114	171
2115	140
2116	131
2117	130
2118	147
2119	164
2120	158
2121	152
2122	172
2123	176
2124	153
2125	169
2126	166
2127	144
2128	141
2129	153
2130	159
2131	157
2132	162
2133	171
2134	165
2135	150
2136	170
2137	172
2138	165
2139	146
2140	160
2141	160
2142	168
2143	195
2144	150
2145	149
2146	161
2147	162
2148	154
2149	178
2150	166
2151	179
2152	177
2153	173
2154	178
2155	183
2156	167
2157	138
2158	170
2159	163
2160	151
2161	162
2162	158
2163	162
2164	160
2165	173
2166	153
2167	194
2168	168
2169	146
2170	145
2171	162
2172	172
2173	133
2174	155
2175	194
2176	172
2177	156
2178	169
2179	143
2180	153
2181	165
2182	166
2183	167
2184	178
2185	161
2186	143
2187	170
2188	172
2189	172
2190	174
2191	201
2192	184
2193	191
2194	181
2195	168
2196	181
2197	172
2198	175
2199	175
2200	169
2201	185
2202	159
2203	170
2204	189
2205	156
2206	165
2207	144
2208	161
2209	151
2210	182
2211	175
2212	158
2213	184
2214	174
2215	175
2216	183
2217	174
2218	172
2219	162
2220	178
2221	177
2222	158
2223	172
2224	169
2225	194
2226	177
2227	176
2228	180
2229	155
2230	172
2231	191
2232	192
2233	181
2234	184
2235	174
2236	172
2237	188
2238	160
2239	175
2240	169
2241	153
2242	187
2243	172
2244	200
2245	210
2246	173
2247	189
2248	158
2249	189
2250	167
2251	202
2252	209
2253	192
2254	192
2255	169
2256	186
2257	161
2258	201
2259	184
2260	169
2261	176
2262	180
2263	182
2264	182
2265	177
2266	193
2267	186
2268	201
2269	191
2270	164
2271	189
2272	152
2273	151
2274	193
2275	183
2276	166
2277	200
2278	205
2279	171
2280	190
2281	158
2282	208
2283	178
2284	190
2285	166
2286	195
2287	204
2288	194
2289	189
2290	190
2291	178
2292	194
2293	184
2294	185
2295	190
2296	187
2297	200
2298	194
2299	209
2300	196
2301	172
2302	188
2303	174
2304	182
2305	189
2306	206
2307	172
2308	176
2309	170
2310	151
2311	165
2312	174
2313	216
2314	183
2315	186
2316	192
2317	203
2318	187
2319	196
2320	181
2321	197
2322	191
2323	180
2324	163
2325	178
2326	201
2327	189
2328	207
2329	186
2330	220
2331	169
2332	204
2333	191
2334	196
2335	183
2336	228
2337	181
2338	177
2339	182
2340	215
2341	185
2342	211
2343	219
2344	188
2345	207
2346	218
2347	177
2348	198
2349	192
2350	185
2351	209
2352	214
2353	212
2354	215
2355	202
2356	219
2357	191
2358	215
2359	195
2360	195
2361	203
2362	201
2363	202
2364	193
2365	213
2366	205
2367	210
2368	195
2369	200
2370	192
2371	193
2372	196
2373	198
2374	195
2375	216
2376	206
2377	201
2378	226
2379	186
2380	210
2381	228
2382	215
2383	236
2384	209
2385	191
2386	194
2387	204
2388	192
2389	232
2390	208
2391	215
2392	204
2393	205
2394	213
2395	212
2396	199
2397	191
2398	207
2399	219
2400	221
2401	202
2402	169
2403	211
2404	211
2405	182
2406	214
2407	201
2408	221
2409	189
2410	216
2411	233
2412	207
2413	229
2414	224
2415	205
2416	212
2417	224
2418	195
2419	223
2420	227
2421	214
2422	216
2423	226
2424	256
2425	202
2426	223
2427	197
2428	237
2429	216
2430	224
2431	202
2432	214
2433	231
2434	225
2435	230
2436	226
2437	212
2438	228
2439	240
2440	211
2441	226
2442	240
2443	249
2444	220
2445	218
2446	242
2447	236
2448	239
2449	232
2450	224
2451	214
2452	238
2453	233
2454	212
2455	234
2456	213
2457	231
2458	218
2459	220
2460	240
2461	227
2462	248
2463	231
2464	238
2465	214
2466	248
2467	251
2468	237
2469	260
2470	229
2471	226
2472	238
2473	217
2474	255
2475	249
2476	237
2477	212
2478	236
2479	248
2480	235
2481	206
2482	233
2483	252
2484	238
2485	252
2486	228
2487	262
2488	238
2489	218
2490	262
2491	277
2492	277
2493	250
2494	266
2495	237
2496	235
2497	229
2498	232
2499	259
2500	270
2501	218
2502	270
2503	253
2504	247
2505	250
2506	244
2507	234
2508	241
2509	248
2510	261
2511	256
2512	253
2513	284
2514	232
2515	251
2516	263
2517	260
2518	264
2519	245
2520	247
2521	271
2522	239
2523	229
2524	263
2525	272
2526	228
2527	252
2528	285
2529	278
2530	288
2531	282
2532	266
2533	272
2534	247
2535	240
2536	273
2537	246
2538	247
2539	252
2540	251
2541	248
2542	262
2543	245
2544	271
2545	263
2546	241
2547	265
2548	253
2549	275
2550	266
2551	243
2552	259
2553	240
2554	281
2555	282
2556	251
2557	221
2558	234
2559	246
2560	256
2561	243
2562	234
2563	243
2564	248
2565	258
2566	254
2567	233
2568	204
2569	210
2570	210
2571	215
2572	212
2573	213
2574	206
2575	185
2576	232
2577	214
2578	176
2579	207
2580	204
2581	218
2582	202
2583	208
2584	200
2585	199
2586	199
2587	204
2588	216
2589	205
2590	196
2591	209
2592	190
2593	230
2594	178
2595	174
2596	226
2597	192
2598	201
2599	193
2600	178
2601	191
2602	201
2603	177
2604	171
2605	195
2606	207
2607	193
2608	205
2609	177
2610	190
2611	213
2612	182
2613	176
2614	190
2615	196
2616	189
2617	195
2618	194
2619	192
2620	191
2621	192
2622	212
2623	200
2624	212
2625	187
2626	190
2627	192
2628	190
2629	222
2630	200
2631	208
2632	209
2633	190
2634	198
2635	183
2636	179
2637	210
2638	177
2639	170
2640	182
2641	193
2642	193
2643	204
2644	178
2645	185
2646	174
2647	205
2648	194
2649	164
2650	189
2651	207
2652	194
2653	179
2654	167
2655	194
2656	185
2657	177
2658	213
2659	198
2660	188
2661	173
2662	167
2663	179
2664	169
2665	192
2666	205
2667	179
2668	173
2669	191
2670	170
2671	199
2672	183
2673	193
2674	173
2675	193
2676	168
2677	159
2678	184
2679	196
2680	160
2681	192
2682	193
2683	196
2684	196
2685	177
2686	170
2687	174
2688	180
2689	185
2690	186
2691	170
2692	175
2693	172
2694	179
2695	196
2696	183
2697	204
2698	193
2699	171
2700	176
2701	194
2702	181
2703	190
2704	173
2705	176
2706	158
2707	177
2708	192
2709	195
2710	164
2711	194
2712	187
2713	185
2714	174
2715	181
2716	177
2717	190
2718	177
2719	196
2720	169
2721	167
2722	184
2723	175
2724	185
2725	172
2726	168
2727	176
2728	171
2729	176
2730	210
2731	187
2732	164
2733	178
2734	163
2735	194
2736	173
2737	175
2738	177
2739	180
2740	171
2741	193
2742	201
2743	151
2744	190
2745	167
2746	155
2747	163
2748	175
2749	160
2750	175
2751	172
2752	194
2753	178
2754	191
2755	166
2756	176
2757	164
2758	169
2759	177
2760	174
2761	172
2762	156
2763	158
2764	166
2765	167
2766	175
2767	184
2768	163
2769	182
2770	193
2771	189
2772	168
2773	165
2774	187
2775	191
2776	177
2777	189
2778	165
2779	165
2780	168
2781	171
2782	163
2783	176
2784	172
2785	173
2786	174
2787	187
2788	164
2789	162
2790	183
2791	165
2792	151
2793	168
2794	188
2795	162
2796	158
2797	170
2798	181
2799	169
2800	154
2801	171
2802	172
2803	196
2804	170
2805	161
2806	155
2807	175
2808	171
2809	172
2810	165
2811	186
2812	205
2813	149
2814	178
2815	171
2816	173
2817	185
2818	187
2819	171
2820	166
2821	167
2822	165
2823	186
2824	190
2825	177
2826	170
2827	136
2828	173
2829	162
2830	173
2831	158
2832	160
2833	149
2834	159
2835	162
2836	164
2837	159
2838	173
2839	182
2840	162
2841	173
2842	159
2843	183
2844	184
2845	182
2846	150
2847	146
2848	149
2849	159
2850	164
2851	154
2852	161
2853	176
2854	175
2855	179
2856	150
2857	180
2858	172
2859	144
2860	166
2861	166
2862	169
2863	169
2864	157
2865	161
2866	199
2867	182
2868	143
2869	178
2870	173
2871	152
2872	165
2873	188
2874	168
2875	178
2876	160
2877	199
2878	136
2879	160
2880	180
2881	174
2882	175
2883	170
2884	171
2885	173
2886	185
2887	174
2888	166
2889	161
2890	172
2891	167
2892	143
2893	172
2894	167
2895	176
2896	164
2897	171
2898	179
2899	197
2900	171
2901	180
2902	180
2903	159
2904	196
2905	175
2906	172
2907	174
2908	191
2909	179
2910	150
2911	159
2912	155
2913	177
2914	177
2915	163
2916	177
2917	165
2918	173
2919	165
2920	193
2921	195
2922	168
2923	177
2924	181
2925	181
2926	185
2927	180
2928	167
2929	175
2930	169
2931	163
2932	169
2933	194
2934	221
2935	176
2936	176
2937	187
2938	162
2939	171
2940	163
2941	180
2942	181
2943	173
2944	174
2945	175
2946	173
2947	161
2948	199
2949	180
2950	140
2951	170
2952	181
2953	171
2954	173
2955	172
2956	173
2957	180
2958	162
2959	156
2960	137
2961	160
2962	178
2963	147
2964	139
2965	150
2966	147
2967	151
2968	124
2969	150
2970	117
2971	135
2972	154
2973	151
2974	119
2975	104
2976	122
2977	122
2978	120
2979	136
2980	139
2981	128
2982	125
2983	97
2984	121
2985	132
2986	104
2987	114
2988	103
2989	111
2990	115
2991	92
2992	108
2993	119
2994	102
2995	137
2996	105
2997	102
2998	137
2999	114
3000	107
3001	115
3002	105
3003	113
3004	99
3005	125
3006	108
3007	103
3008	107
3009	98
3010	111
3011	116
3012	128
3013	109
3014	92
3015	110
3016	109
3017	102
3018	114
3019	108
3020	92
3021	94
3022	107
3023	97
3024	106
3025	87
3026	100
3027	104
3028	94
3029	123
3030	111
3031	95
3032	116
3033	97
3034	98
3035	101
3036	96
3037	98
3038	89
3039	102
3040	100
3041	89
3042	95
3043	95
3044	87
3045	101
3046	92
3047	85
3048	98
3049	79
3050	105
3051	110
3052	104
3053	101
3054	91
3055	89
3056	74
3057	75
3058	80
3059	97
3060	97
3061	91
3062	83
3063	83
3064	74
3065	84
3066	76
3067	83
3068	97
3069	80
3070	88
3071	74
3072	76
3073	85
3074	90
3075	97
3076	91
3077	79
3078	85
3079	79
3080	81
3081	85
3082	76
3083	85
3084	72
3085	71
3086	89
3087	87
3088	91
3089	80
3090	91
3091	95
3092	91
3093	95
3094	87
3095	75
3096	89
3097	119
3098	117
3099	160
3100	255
3101	545
3102	1252
3103	2780
3104	5136
3105	8162
3106	10295
3107	10576
3108	8986
3109	6010
3110	3194
3111	1305
3112	464
3113	200
3114	126
3115	83
3116	67
3117	63
3118	84
3119	58
3120	70
3121	77
3122	72
3123	75
3124	57
3125	66
3126	59
3127	61
3128	82
3129	75
3130	59
3131	67
3132	59
3133	66
3134	69
3135	69
3136	63
3137	64
3138	57
3139	54
3140	69
3141	65
3142	58
3143	59
3144	64
3145	65
3146	65
3147	53
3148	58
3149	68
3150	49
3151	55
3152	53
3153	56
3154	65
3155	58
3156	56
3157	61
3158	41
3159	47
3160	51
3161	58
3162	63
3163	55
3164	58
3165	60
3166	58
3167	52
3168	61
3169	55
3170	50
3171	59
3172	49
3173	48
3174	50
3175	59
3176	51
3177	49
3178	39
3179	49
3180	49
3181	43
3182	45
3183	46
3184	47
3185	57
3186	46
3187	44
3188	35
3189	39
3190	45
3191	39
3192	39
3193	44
3194	33
3195	43
3196	37
3197	43
3198	32
3199	30
3200	40
3201	37
3202	54
3203	34
3204	34
3205	40
3206	30
3207	34
3208	47
3209	47
3210	41
3211	52
3212	36
3213	21
3214	39
3215	45
3216	34
3217	34
3218	27
3219	36
3220	32
3221	20
3222	37
3223	33
3224	26
3225	41
3226	40
3227	22
3228	42
3229	37
3230	32
3231	37
3232	33
3233	37
3234	35
3235	41
3236	26
3237	35
3238	31
3239	23
3240	28
3241	24
3242	31
3243	40
3244	33
3245	36
3246	23
3247	22
3248	31
3249	26
3250	17
3251	22
3252	31
3253	20
3254	39
3255	36
3256	25
3257	32
3258	35
3259	28
3260	13
3261	31
3262	31
3263	36
3264	23
3265	30
3266	27
3267	23
3268	23
3269	32
3270	25
3271	26
3272	20
3273	33
3274	34
3275	25
3276	17
3277	25
3278	20
3279	27
3280	22
3281	23
3282	19
3283	24
3284	17
3285	19
3286	21
3287	31
3288	28
3289	19
3290	26
3291	26
3292	24
3293	20
3294	19
3295	14
3296	26
3297	25
3298	23
3299	14
3300	14
3301	22
3302	21
3303	17
3304	27
3305	19
3306	25
3307	25
3308	19
3309	27
3310	16
3311	20
3312	24
3313	18
3314	23
3315	17
3316	16
3317	18
3318	21
3319	30
3320	18
3321	22
3322	21
3323	25
3324	28
3325	21
3326	15
3327	23
3328	18
3329	18
3330	25
3331	20
3332	25
3333	27
3334	32
3335	16
3336	25
3337	14
3338	32
3339	17
3340	25
3341	22
3342	19
3343	28
3344	20
3345	15
3346	14
3347	19
3348	28
3349	15
3350	29
3351	16
3352	21
3353	29
3354	15
3355	26
3356	18
3357	17
3358	19
3359	22
3360	14
3361	25
3362	30
3363	72
3364	128
3365	260
3366	494
3367	905
3368	1197
3369	1439
3370	1343
3371	1091
3372	668
3373	316
3374	145
3375	54
3376	31
3377	17
3378	20
3379	21
3380	16
3381	19
3382	16
3383	14
3384	30
3385	23
3386	23
3387	22
3388	21
3389	12
3390	15
3391	18
3392	27
3393	20
3394	15
3395	22
3396	20
3397	17
3398	13
3399	12
3400	21
3401	16
3402	15
3403	22
3404	16
3405	14
3406	16
3407	18
3408	17
3409	19
3410	17
3411	9
3412	24
3413	13
3414	17
3415	15
3416	17
3417	11
3418	13
3419	13
3420	18
3421	18
3422	18
3423	19
3424	19
3425	19
3426	14
3427	17
3428	17
3429	16
3430	18
3431	17
3432	4
3433	19
3434	21
3435	14
3436	19
3437	11
3438	19
3439	20
3440	20
3441	11
3442	16
3443	19
3444	24
3445	9
3446	12
3447	19
3448	14
3449	21
3450	11
3451	11
3452	18
3453	14
3454	22
3455	21
3456	16
3457	16
3458	16
3459	8
3460	14
3461	11
3462	12
3463	15
3464	11
3465	21
3466	16
3467	19
3468	17
3469	21
3470	9
3471	16
3472	19
3473	17
3474	15
3475	25
3476	16
3477	12
3478	17
3479	17
3480	9
3481	13
3482	15
3483	20
3484	12
3485	24
3486	27
3487	22
3488	14
3489	26
3490	17
3491	15
3492	13
3493	19
3494	20
3495	25
3496	26
3497	16
3498	20
3499	27
3500	19
3501	23
3502	21
3503	18
3504	15
3505	22
3506	21
3507	18
3508	26
3509	21
3510	38
3511	64
3512	118
3513	260
3514	643
3515	1414
3516	2912
3517	5317
3518	7651
3519	9021
3520	9166
3521	7309
3522	4935
3523	2574
3524	1134
3525	390
3526	120
3527	32
3528	29
3529	14
3530	12
3531	12
3532	16
3533	18
3534	12
3535	15
3536	13
3537	9
3538	15
3539	11
3540	10
3541	12
3542	12
3543	20
3544	10
3545	12
3546	10
3547	17
3548	12
3549	14
3550	7
3551	8
3552	12
3553	13
3554	8
3555	4
3556	13
3557	7
3558	8
3559	9
3560	12
3561	9
3562	8
3563	7
3564	10
3565	7
3566	6
3567	10
3568	7
3569	9
3570	8
3571	9
3572	13
3573	7
3574	11
3575	9
3576	6
3577	10
3578	9
3579	10
3580	10
3581	7
3582	7
3583	7
3584	5
3585	3
3586	8
3587	11
3588	8
3589	6
3590	5
3591	9
3592	9
3593	10
3594	8
3595	8
3596	8
3597	3
3598	6
3599	12
3600	9
3601	10
3602	9
3603	5
3604	6
3605	4
3606	5
3607	2
3608	7
3609	7
3610	7
3611	7
3612	8
3613	5
3614	4
3615	13
3616	11
3617	8
3618	7
3619	7
3620	5
3621	2
3622	11
3623	13
3624	6
3625	4
3626	6
3627	7
3628	5
3629	4
3630	5
3631	6
3632	7
3633	3
3634	8
3635	5
3636	5
3637	5
3638	11
3639	7
3640	3
3641	5
3642	9
3643	3
3644	6
3645	8
3646	6
3647	13
3648	5
3649	8
3650	10
3651	8
3652	3
3653	6
3654	7
3655	2
3656	13
3657	6
3658	12
3659	7
3660	6
3661	7
3662	7
3663	8
3664	11
3665	7
3666	9
3667	5
3668	5
3669	5
3670	5
3671	9
3672	6
3673	5
3674	9
3675	11
3676	9
3677	5
3678	10
3679	5
3680	7
3681	9
3682	6
3683	7
3684	9
3685	8
3686	12
3687	6
3688	7
3689	5
3690	5
3691	5
3692	11
3693	9
3694	6
3695	10
3696	9
3697	7
3698	10
3699	7
3700	6
3701	9
3702	4
3703	7
3704	8
3705	7
3706	4
3707	4
3708	11
3709	9
3710	7
3711	10
3712	3
3713	3
3714	7
3715	6
3716	7
3717	8
3718	3
3719	6
3720	5
3721	4
3722	5
3723	8
3724	9
3725	5
3726	7
3727	5
3728	5
3729	6
3730	5
3731	16
3732	5
3733	7
3734	4
3735	4
3736	5
3737	3
3738	9
3739	7
3740	5
3741	7
3742	6
3743	8
3744	6
3745	5
3746	4
3747	8
3748	8
3749	9
3750	7
3751	3
3752	6
3753	6
3754	6
3755	6
3756	3
3757	9
3758	2
3759	9
3760	5
3761	2
3762	9
3763	4
3764	10
3765	8
3766	5
3767	10
3768	4
3769	10
3770	6
3771	6
3772	7
3773	4
3774	7
3775	4
3776	5
3777	10
3778	2
3779	3
3780	7
3781	7
3782	7
3783	6
3784	3
3785	7
3786	6
3787	7
3788	6
3789	7
3790	9
3791	5
3792	7
3793	7
3794	6
3795	6
3796	6
3797	7
3798	4
3799	6
3800	7
3801	5
3802	6
3803	5
3804	5
3805	6
3806	7
3807	6
3808	7
3809	4
3810	5
3811	3
3812	3
3813	7
3814	8
3815	4
3816	6
3817	7
3818	8
3819	5
3820	6
3821	3
3822	5
3823	5
3824	6
3825	5
3826	5
3827	6
3828	5
3829	7
3830	6
3831	9
3832	6
3833	11
3834	4
3835	7
3836	5
3837	4
3838	9
3839	5
3840	7
3841	3
3842	4
3843	6
3844	1
3845	4
3846	3
3847	5
3848	5
3849	7
3850	2
3851	6
3852	8
3853	6
3854	5
3855	8
3856	5
3857	11
3858	8
3859	1
3860	6
3861	5
3862	7
3863	6
3864	11
3865	4
3866	6
3867	5
3868	5
3869	7
3870	9
3871	3
3872	6
3873	6
3874	7
3875	4
3876	3
3877	2
3878	6
3879	2
3880	5
3881	5
3882	7
3883	4
3884	3
3885	4
3886	10
3887	7
3888	6
3889	8
3890	4
3891	7
3892	4
3893	5
3894	2
3895	5
3896	5
3897	5
3898	8
3899	7
3900	2
3901	3
3902	2
3903	0
3904	5
3905	8
3906	8
3907	2
3908	6
3909	4
3910	8
3911	8
3912	7
3913	8
3914	9
3915	2
3916	7
3917	5
3918	4
3919	5
3920	6
3921	8
3922	3
3923	6
3924	4
3925	4
3926	4
3927	4
3928	8
3929	6
3930	4
3931	5
3932	4
3933	2
3934	3
3935	5
3936	5
3937	5
3938	9
3939	4
3940	4
3941	3
3942	8
3943	4
3944	4
3945	2
3946	2
3947	2
3948	5
3949	5
3950	4
3951	4
3952	2
3953	7
3954	3
3955	3
3956	9
3957	6
3958	5
3959	8
3960	2
3961	8
3962	5
3963	5
3964	7
3965	6
3966	7
3967	5
3968	3
3969	3
3970	7
3971	4
3972	3
3973	8
3974	3
3975	4
3976	5
3977	3
3978	3
3979	4
3980	6
3981	5
3982	3
3983	5
3984	2
3985	3
3986	3
3987	6
3988	8
3989	4
3990	4
3991	7
3992	4
3993	4
3994	5
3995	5
3996	9
3997	7
3998	8
3999	5
4000	6
4001	5
4002	5
4003	6
4004	7
4005	4
4006	5
4007	4
4008	4
4009	4
4010	2
4011	1
4012	8
4013	4
4014	7
4015	4
4016	7
4017	6
4018	2
4019	2
4020	4
4021	8
4022	5
4023	6
4024	5
4025	5
4026	4
4027	3
4028	4
4029	4
4030	7
4031	4
4032	7
4033	5
4034	3
4035	5
4036	3
4037	4
4038	7
4039	4
4040	6
4041	9
4042	6
4043	5
4044	4
4045	3
4046	3
4047	5
4048	11
4049	9
4050	3
4051	4
4052	6
4053	8
4054	2
4055	8
4056	5
4057	5
4058	7
4059	7
4060	4
4061	4
4062	3
4063	7
4064	7
4065	8
4066	6
4067	4
4068	4
4069	6
4070	4
4071	8
4072	10
4073	6
4074	7
4075	11
4076	6
4077	9
4078	10
4079	4
4080	6
4081	7
4082	4
4083	4
4084	4
4085	4
4086	6
4087	3
4088	1
4089	7
4090	5
4091	1
4092	6
4093	6
4094	7
4095	2
4096	4
4097	6
4098	3
4099	5
4100	4
4101	3
4102	7
4103	5
4104	6
4105	1
4106	3
4107	2
4108	8
4109	1
4110	3
4111	4
4112	2
4113	5
4114	2
4115	5
4116	3
4117	7
4118	5
4119	6
4120	6
4121	6
4122	5
4123	5
4124	7
4125	2
4126	3
4127	9
4128	2
4129	3
4130	1
4131	9
4132	7
4133	3
4134	3
4135	8
4136	8
4137	5
4138	9
4139	5
4140	4
4141	4
4142	7
4143	3
4144	3
4145	4
4146	9
4147	10
4148	3
4149	9
4150	9
4151	8
4152	5
4153	7
4154	2
4155	5
4156	6
4157	4
4158	1
4159	6
4160	5
4161	6
4162	3
4163	8
4164	3
4165	4
4166	6
4167	5
4168	7
4169	4
4170	7
4171	5
4172	5
4173	3
4174	8
4175	2
4176	9
4177	1
4178	7
4179	4
4180	8
4181	4
4182	4
4183	7
4184	9
4185	1
4186	8
4187	4
4188	2
4189	6
4190	8
4191	4
4192	6
4193	5
4194	6
4195	1
4196	2
4197	4
4198	8
4199	8
4200	8
4201	3
4202	1
4203	5
4204	5
4205	5
4206	4
4207	5
4208	6
4209	8
4210	4
4211	2
4212	7
4213	4
4214	4
4215	6
4216	5
4217	4
4218	6
4219	2
4220	3
4221	2
4222	6
4223	6
4224	5
4225	3
4226	9
4227	6
4228	6
4229	4
4230	5
4231	6
4232	5
4233	0
4234	9
4235	5
4236	10
4237	7
4238	4
4239	5
4240	3
4241	5
4242	3
4243	4
4244	2
4245	5
4246	5
4247	1
4248	8
4249	1
4250	5
4251	0
4252	2
4253	5
4254	4
4255	6
4256	4
4257	2
4258	4
4259	3
4260	4
4261	3
4262	3
4263	4
4264	3
4265	3
4266	5
4267	6
4268	6
4269	4
4270	4
4271	9
4272	2
4273	4
4274	4
4275	5
4276	5
4277	8
4278	7
4279	4
4280	4
4281	5
4282	4
4283	2
4284	3
4285	7
4286	3
4287	2
4288	4
4289	6
4290	3
4291	5
4292	6
4293	8
4294	5
4295	4
4296	5
4297	4
4298	4
4299	2
4300	3
4301	9
4302	4
4303	1
4304	8
4305	3
4306	8
4307	5
4308	8
4309	5
4310	4
4311	2
4312	2
4313	3
4314	3
4315	6
4316	3
4317	4
4318	2
4319	2
4320	7
4321	4
4322	3
4323	5
4324	2
4325	2
4326	2
4327	4
4328	3
4329	6
4330	6
4331	1
4332	2
4333	5
4334	4
4335	5
4336	3
4337	5
4338	3
4339	4
4340	3
4341	5
4342	2
4343	9
4344	4
4345	8
4346	3
4347	0
4348	4
4349	3
4350	7
4351	3
4352	6
4353	2
4354	3
4355	3
4356	5
4357	3
4358	5
4359	2
4360	4
4361	6
4362	1
4363	3
4364	2
4365	4
4366	5
4367	8
4368	4
4369	7
4370	5
4371	4
4372	2
4373	2
4374	5
4375	2
4376	2
4377	6
4378	3
4379	4
4380	6
4381	1
4382	1
4383	4
4384	3
4385	3
4386	4
4387	2
4388	3
4389	3
4390	4
4391	3
4392	7
4393	6
4394	7
4395	4
4396	8
4397	6
4398	7
4399	5
4400	8
4401	3
4402	6
4403	8
4404	2
4405	2
4406	4
4407	4
4408	5
4409	2
4410	4
4411	1
4412	2
4413	10
4414	7
4415	6
4416	7
4417	4
4418	4
4419	4
4420	2
4421	6
4422	5
4423	7
4424	2
4425	0
4426	3
4427	1
4428	3
4429	3
4430	3
4431	4
4432	7
4433	5
4434	1
4435	4
4436	5
4437	7
4438	6
4439	4
4440	2
4441	3
4442	2
4443	8
4444	6
4445	2
4446	5
4447	3
4448	3
4449	2
4450	8
4451	2
4452	1
4453	5
4454	2
4455	6
4456	4
4457	5
4458	6
4459	5
4460	3
4461	6
4462	4
4463	2
4464	1
4465	10
4466	5
4467	2
4468	4
4469	4
4470	3
4471	3
4472	5
4473	7
4474	3
4475	3
4476	1
4477	5
4478	3
4479	3
4480	1
4481	6
4482	0
4483	2
4484	3
4485	4
4486	5
4487	2
4488	7
4489	3
4490	3
4491	2
4492	9
4493	10
4494	3
4495	3
4496	1
4497	2
4498	4
4499	6
4500	5
4501	4
4502	6
4503	3
4504	2
4505	7
4506	5
4507	3
4508	4
4509	9
4510	1
4511	2
4512	3
4513	4
4514	8
4515	5
4516	4
4517	2
4518	4
4519	2
4520	1
4521	3
4522	3
4523	1
4524	3
4525	7
4526	5
4527	4
4528	5
4529	1
4530	2
4531	3
4532	4
4533	4
4534	1
4535	1
4536	3
4537	4
4538	0
4539	2
4540	6
4541	6
4542	2
4543	5
4544	2
4545	2
4546	3
4547	6
4548	3
4549	4
4550	5
4551	4
4552	5
4553	4
4554	5
4555	1
4556	7
4557	6
4558	4
4559	2
4560	5
4561	3
4562	7
4563	4
4564	0
4565	3
4566	4
4567	4
4568	4
4569	2
4570	4
4571	1
4572	1
4573	0
4574	4
4575	2
4576	4
4577	2
4578	5
4579	3
4580	5
4581	1
4582	1
4583	3
4584	2
4585	3
4586	2
4587	6
4588	2
4589	1
4590	5
4591	2
4592	9
4593	7
4594	3
4595	3
4596	4
4597	2
4598	4
4599	3
4600	4
4601	1
4602	6
4603	5
4604	3
4605	6
4606	2
4607	5
4608	2
4609	4
4610	2
4611	1
4612	3
4613	3
4614	2
4615	6
4616	6
4617	4
4618	8
4619	3
4620	2
4621	4
4622	2
4623	5
4624	3
4625	2
4626	6
4627	2
4628	3
4629	3
4630	2
4631	3
4632	7
4633	4
4634	4
4635	1
4636	2
4637	2
4638	9
4639	0
4640	1
4641	1
4642	3
4643	1
4644	3
4645	5
4646	3
4647	7
4648	6
4649	1
4650	2
4651	4
4652	2
4653	1
4654	1
4655	3
4656	2
4657	3
4658	3
4659	2
4660	4
4661	8
4662	3
4663	1
4664	4
4665	1
4666	6
4667	1
4668	5
4669	1
4670	5
4671	3
4672	6
4673	5
4674	4
4675	3
4676	3
4677	3
4678	5
4679	3
4680	2
4681	4
4682	4
4683	5
4684	3
4685	5
4686	8
4687	8
4688	9
4689	16
4690	16
4691	21
4692	26
4693	21
4694	22
4695	29
4696	18
4697	17
4698	20
4699	7
4700	5
4701	2
4702	1
4703	0
4704	0
4705	1
4706	5
4707	6
4708	4
4709	4
4710	7
4711	6
4712	3
4713	4
4714	2
4715	4
4716	1
4717	2
4718	2
4719	2
4720	3
4721	0
4722	1
4723	2
4724	4
4725	3
4726	1
4727	3
4728	3
4729	5
4730	6
4731	6
4732	1
4733	6
4734	6
4735	5
4736	3
4737	4
4738	8
4739	4
4740	2
4741	3
4742	3
4743	4
4744	4
4745	6
4746	2
4747	3
4748	6
4749	4
4750	3
4751	7
4752	3
4753	4
4754	6
4755	1
4756	5
4757	2
4758	0
4759	1
4760	4
4761	3
4762	1
4763	0
4764	2
4765	3
4766	1
4767	2
4768	2
4769	2
4770	3
4771	6
4772	3
4773	3
4774	4
4775	1
4776	5
4777	4
4778	4
4779	4
4780	6
4781	2
4782	4
4783	3
4784	1
4785	1
4786	3
4787	0
4788	0
4789	4
4790	0
4791	1
4792	3
4793	1
4794	3
4795	2
4796	2
4797	1
4798	2
4799	6
4800	2
4801	4
4802	5
4803	3
4804	3
4805	0
4806	3
4807	3
4808	9
4809	4
4810	1
4811	3
4812	1
4813	4
4814	5
4815	5
4816	1
4817	5
4818	5
4819	4
4820	6
4821	4
4822	7
4823	6
4824	2
4825	4
4826	2
4827	2
4828	10
4829	6
4830	1
4831	3
4832	1
4833	1
4834	3
4835	5
4836	5
4837	3
4838	5
4839	4
4840	4
4841	4
4842	3
4843	0
4844	2
4845	3
4846	2
4847	3
4848	5
4849	3
4850	0
4851	4
4852	2
4853	1
4854	2
4855	5
4856	5
4857	2
4858	2
4859	6
4860	6
4861	2
4862	3
4863	2
4864	2
4865	6
4866	2
4867	4
4868	2
4869	6
4870	2
4871	1
4872	5
4873	2
4874	3
4875	3
4876	1
4877	1
4878	5
4879	3
4880	2
4881	1
4882	2
4883	3
4884	2
4885	2
4886	3
4887	1
4888	2
4889	2
4890	1
4891	4
4892	3
4893	3
4894	3
4895	6
4896	5
4897	1
4898	3
4899	3
4900	0
4901	6
4902	2
4903	1
4904	3
4905	1
4906	6
4907	2
4908	3
4909	3
4910	2
4911	3
4912	8
4913	0
4914	2
4915	3
4916	1
4917	4
4918	1
4919	4
4920	5
4921	5
4922	8
4923	1
4924	1
4925	2
4926	1
4927	5
4928	5
4929	3
4930	1
4931	2
4932	3
4933	3
4934	3
4935	4
4936	2
4937	2
4938	5
4939	5
4940	2
4941	1
4942	6
4943	5
4944	3
4945	2
4946	3
4947	1
4948	5
4949	1
4950	4
4951	2
4952	4
4953	4
4954	4
4955	2
4956	3
4957	5
4958	3
4959	2
4960	2
4961	3
4962	4
4963	4
4964	4
4965	1
4966	2
4967	4
4968	2
4969	3
4970	1
4971	2
4972	1
4973	3
4974	5
4975	2
4976	7
4977	3
4978	8
4979	3
4980	1
4981	1
4982	3
4983	1
4984	2
4985	1
4986	8
4987	5
4988	2
4989	2
4990	5
4991	3
4992	4
4993	3
4994	1
4995	1
4996	2
4997	5
4998	4
4999	2
5000	4
5001	3
5002	7
5003	3
5004	2
5005	6
5006	3
5007	4
5008	1
5009	0
5010	1
5011	2
5012	3
5013	0
5014	4
5015	2
5016	4
5017	4
5018	3
5019	2
5020	2
5021	4
5022	2
5023	6
5024	6
5025	2
5026	4
5027	3
5028	2
5029	3
5030	3
5031	3
5032	4
5033	5
5034	0
5035	7
5036	2
5037	1
5038	4
5039	0
5040	4
5041	4
5042	4
5043	4
5044	4
5045	2
5046	3
5047	3
5048	2
5049	5
5050	2
5051	2
5052	1
5053	4
5054	2
5055	3
5056	3
5057	5
5058	2
5059	6
5060	1
5061	4
5062	4
5063	7
5064	2
5065	3
5066	4
5067	3
5068	2
5069	4
5070	1
5071	4
5072	1
5073	0
5074	2
5075	2
5076	0
5077	3
5078	2
5079	2
5080	2
5081	3
5082	5
5083	2
5084	6
5085	3
5086	7
5087	6
5088	5
5089	6
5090	4
5091	1
5092	3
5093	4
5094	2
5095	6
5096	2
5097	1
5098	4
5099	4
5100	3
5101	3
5102	7
5103	1
5104	3
5105	2
5106	2
5107	0
5108	1
5109	5
5110	6
5111	3
5112	5
5113	3
5114	5
5115	3
5116	4
5117	6
5118	2
5119	2
5120	1
5121	5
5122	3
5123	1
5124	7
5125	2
5126	0
5127	6
5128	2
5129	3
5130	8
5131	2
5132	2
5133	2
5134	5
5135	5
5136	1
5137	4
5138	6
5139	4
5140	2
5141	3
5142	4
5143	2
5144	4
5145	5
5146	1
5147	4
5148	8
5149	0
5150	5
5151	2
5152	2
5153	5
5154	2
5155	2
5156	2
5157	1
5158	2
5159	3
5160	7
5161	7
5162	4
5163	9
5164	5
5165	4
5166	2
5167	1
5168	6
5169	4
5170	3
5171	3
5172	1
5173	2
5174	0
5175	5
5176	4
5177	2
5178	4
5179	1
5180	2
5181	2
5182	2
5183	6
5184	2
5185	5
5186	4
5187	2
5188	2
5189	3
5190	3
5191	2
5192	3
5193	3
5194	1
5195	4
5196	0
5197	4
5198	1
5199	5
5200	4
5201	3
5202	3
5203	2
5204	3
5205	2
5206	5
5207	3
5208	1
5209	2
5210	1
5211	3
5212	3
5213	0
5214	1
5215	4
5216	1
5217	5
5218	2
5219	3
5220	3
5221	4
5222	5
5223	3
5224	4
5225	3
5226	3
5227	5
5228	6
5229	3
5230	8
5231	4
5232	3
5233	4
5234	6
5235	1
5236	3
5237	8
5238	2
5239	2
5240	6
5241	3
5242	4
5243	2
5244	3
5245	4
5246	4
5247	1
5248	5
5249	3
5250	1
5251	6
5252	4
5253	4
5254	4
5255	1
5256	2
5257	3
5258	3
5259	3
5260	2
5261	5
5262	3
5263	4
5264	3
5265	3
5266	1
5267	2
5268	2
5269	4
5270	2
5271	6
5272	2
5273	1
5274	3
5275	3
5276	2
5277	5
5278	2
5279	3
5280	0
5281	2
5282	2
5283	3
5284	2
5285	2
5286	2
5287	5
5288	3
5289	1
5290	5
5291	6
5292	2
5293	4
5294	7
5295	5
5296	4
5297	2
5298	3
5299	2
5300	4
5301	1
5302	7
5303	4
5304	4
5305	3
5306	2
5307	2
5308	2
5309	2
5310	4
5311	3
5312	2
5313	1
5314	2
5315	6
5316	6
5317	6
5318	3
5319	3
5320	1
5321	2
5322	4
5323	5
5324	2
5325	1
5326	6
5327	2
5328	5
5329	3
5330	4
5331	2
5332	5
5333	6
5334	2
5335	4
5336	5
5337	1
5338	5
5339	2
5340	5
5341	4
5342	4
5343	2
5344	4
5345	3
5346	4
5347	1
5348	5
5349	5
5350	2
5351	3
5352	4
5353	1
5354	6
5355	6
5356	3
5357	5
5358	4
5359	2
5360	3
5361	4
5362	3
5363	3
5364	1
5365	5
5366	0
5367	3
5368	3
5369	3
5370	4
5371	3
5372	4
5373	2
5374	3
5375	2
5376	3
5377	4
5378	1
5379	4
5380	1
5381	0
5382	4
5383	5
5384	4
5385	4
5386	3
5387	2
5388	1
5389	5
5390	5
5391	2
5392	3
5393	0
5394	3
5395	2
5396	3
5397	3
5398	2
5399	1
5400	1
5401	6
5402	3
5403	2
5404	3
5405	4
5406	3
5407	5
5408	4
5409	1
5410	3
5411	1
5412	4
5413	2
5414	0
5415	2
5416	1
5417	3
5418	6
5419	2
5420	4
5421	3
5422	3
5423	3
5424	8
5425	0
5426	5
5427	2
5428	2
5429	5
5430	5
5431	2
5432	1
5433	3
5434	7
5435	2
5436	3
5437	2
5438	5
5439	2
5440	1
5441	0
5442	2
5443	2
5444	1
5445	3
5446	3
5447	5
5448	0
5449	0
5450	3
5451	1
5452	4
5453	4
5454	0
5455	4
5456	4
5457	1
5458	3
5459	6
5460	2
5461	3
5462	0
5463	2
5464	8
5465	3
5466	4
5467	0
5468	3
5469	2
5470	3
5471	3
5472	2
5473	4
5474	4
5475	2
5476	3
5477	3
5478	2
5479	3
5480	4
5481	2
5482	1
5483	2
5484	2
5485	3
5486	3
5487	4
5488	2
5489	0
5490	2
5491	2
5492	5
5493	3
5494	4
5495	3
5496	1
5497	4
5498	1
5499	3
5500	0
5501	2
5502	3
5503	1
5504	2
5505	1
5506	2
5507	3
5508	0
5509	3
5510	4
5511	5
5512	4
5513	3
5514	1
5515	2
5516	0
5517	5
5518	4
5519	3
5520	2
5521	4
5522	3
5523	3
5524	1
5525	4
5526	1
5527	0
5528	0
5529	2
5530	3
5531	3
5532	5
5533	4
5534	6
5535	3
5536	3
5537	3
5538	3
5539	2
5540	6
5541	6
5542	2
5543	3
5544	1
5545	1
5546	2
5547	0
5548	3
5549	2
5550	3
5551	3
5552	2
5553	2
5554	3
5555	1
5556	2
5557	0
5558	2
5559	5
5560	7
5561	4
5562	2
5563	1
5564	3
5565	4
5566	2
5567	5
5568	2
5569	2
5570	4
5571	1
5572	1
5573	3
5574	2
5575	1
5576	3
5577	4
5578	2
5579	0
5580	2
5581	4
5582	3
5583	1
5584	2
5585	7
5586	1
5587	4
5588	1
5589	1
5590	4
5591	2
5592	3
5593	5
5594	1
5595	3
5596	1
5597	5
5598	1
5599	1
5600	4
5601	5
5602	3
5603	1
5604	1
5605	2
5606	2
5607	3
5608	1
5609	4
5610	4
5611	1
5612	5
5613	2
5614	5
5615	3
5616	1
5617	3
5618	2
5619	2
5620	3
5621	3
5622	1
5623	3
5624	4
5625	4
5626	5
5627	1
5628	0
5629	3
5630	4
5631	7
5632	0
5633	3
5634	2
5635	1
5636	3
5637	2
5638	5
5639	3
5640	1
5641	2
5642	2
5643	4
5644	2
5645	3
5646	2
5647	3
5648	4
5649	5
5650	2
5651	2
5652	1
5653	2
5654	3
5655	0
5656	5
5657	1
5658	6
5659	6
5660	2
5661	6
5662	7
5663	1
5664	3
5665	0
5666	0
5667	2
5668	2
5669	4
5670	1
5671	4
5672	2
5673	4
5674	0
5675	3
5676	3
5677	4
5678	3
5679	2
5680	1
5681	2
5682	2
5683	0
5684	4
5685	2
5686	2
5687	0
5688	2
5689	2
5690	5
5691	2
5692	7
5693	2
5694	2
5695	1
5696	3
5697	2
5698	6
5699	0
5700	2
5701	3
5702	2
5703	3
5704	4
5705	2
5706	3
5707	1
5708	3
5709	1
5710	4
5711	3
5712	2
5713	3
5714	2
5715	4
5716	6
5717	2
5718	8
5719	1
5720	3
5721	3
5722	4
5723	2
5724	1
5725	2
5726	4
5727	5
5728	3
5729	0
5730	2
5731	5
5732	4
5733	2
5734	3
5735	3
5736	1
5737	4
5738	1
5739	5
5740	2
5741	7
5742	2
5743	0
5744	1
5745	1
5746	3
5747	0
5748	3
5749	4
5750	2
5751	3
5752	1
5753	2
5754	3
5755	2
5756	4
5757	4
5758	2
5759	0
5760	0
5761	5
5762	5
5763	2
5764	2
5765	3
5766	3
5767	4
5768	2
5769	5
5770	6
5771	2
5772	3
5773	2
5774	1
5775	1
5776	3
5777	2
5778	5
5779	0
5780	2
5781	3
5782	3
5783	4
5784	1
5785	1
5786	0
5787	2
5788	2
5789	1
5790	2
5791	1
5792	0
5793	1
5794	6
5795	3
5796	2
5797	1
5798	4
5799	4
5800	1
5801	7
5802	3
5803	0
5804	4
5805	6
5806	2
5807	6
5808	6
5809	4
5810	4
5811	4
5812	3
5813	3
5814	3
5815	6
5816	3
5817	1
5818	1
5819	3
5820	0
5821	1
5822	1
5823	1
5824	6
5825	4
5826	2
5827	1
5828	2
5829	6
5830	2
5831	1
5832	2
5833	1
5834	0
5835	4
5836	2
5837	2
5838	3
5839	1
5840	1
5841	1
5842	7
5843	1
5844	3
5845	2
5846	1
5847	1
5848	5
5849	1
5850	5
5851	3
5852	1
5853	7
5854	4
5855	4
5856	6
5857	1
5858	8
5859	3
5860	5
5861	1
5862	3
5863	1
5864	1
5865	3
5866	2
5867	3
5868	1
5869	4
5870	5
5871	2
5872	1
5873	6
5874	3
5875	5
5876	3
5877	2
5878	3
5879	3
5880	5
5881	7
5882	4
5883	6
5884	4
5885	5
5886	3
5887	5
5888	1
5889	2
5890	0
5891	6
5892	2
5893	3
5894	5
5895	2
5896	4
5897	2
5898	3
5899	3
5900	4
5901	2
5902	2
5903	4
5904	0
5905	2
5906	1
5907	2
5908	2
5909	3
5910	5
5911	6
5912	2
5913	2
5914	2
5915	3
5916	2
5917	5
5918	3
5919	3
5920	6
5921	2
5922	0
5923	5
5924	2
5925	3
5926	0
5927	1
5928	1
5929	3
5930	3
5931	4
5932	0
5933	8
5934	4
5935	7
5936	3
5937	5
5938	0
5939	1
5940	7
5941	6
5942	3
5943	4
5944	4
5945	3
5946	3
5947	7
5948	2
5949	4
5950	6
5951	3
5952	5
5953	7
5954	0
5955	1
5956	3
5957	1
5958	6
5959	2
5960	6
5961	2
5962	7
5963	3
5964	4
5965	3
5966	4
5967	3
5968	4
5969	6
5970	4
5971	4
5972	4
5973	5
5974	4
5975	2
5976	5
5977	6
5978	4
5979	4
5980	1
5981	4
5982	3
5983	5
5984	3
5985	6
5986	4
5987	2
5988	4
5989	4
5990	5
5991	3
5992	3
5993	7
5994	4
5995	0
5996	3
5997	5
5998	3
5999	3
6000	1
6001	2
6002	1
6003	3
6004	2
6005	2
6006	4
6007	3
6008	5
6009	1
6010	3
6011	0
6012	2
6013	3
6014	1
6015	5
6016	3
6017	3
6018	0
6019	1
6020	1
6021	1
6022	4
6023	2
6024	1
6025	2
6026	1
6027	3
6028	2
6029	3
6030	1
6031	1
6032	0
6033	0
6034	1
6035	4
6036	1
6037	0
6038	3
6039	2
6040	4
6041	2
6042	1
6043	0
6044	1
6045	4
6046	2
6047	3
6048	1
6049	1
6050	2
6051	1
6052	3
6053	1
6054	1
6055	6
6056	3
6057	1
6058	1
6059	3
6060	3
6061	0
6062	1
6063	1
6064	3
6065	3
6066	2
6067	1
6068	1
6069	1
6070	2
6071	2
6072	2
6073	3
6074	0
6075	3
6076	3
6077	5
6078	6
6079	1
6080	3
6081	1
6082	0
6083	1
6084	3
6085	0
6086	2
6087	5
6088	1
6089	3
6090	0
6091	1
6092	1
6093	0
6094	3
6095	3
6096	2
6097	1
6098	2
6099	1
6100	1
6101	1
6102	3
6103	2
6104	2
6105	0
6106	1
6107	0
6108	0
6109	2
6110	1
6111	3
6112	1
6113	1
6114	0
6115	0
6116	4
6117	4
6118	0
6119	2
6120	0
6121	2
6122	3
6123	1
6124	4
6125	4
6126	0
6127	2
6128	1
6129	4
6130	1
6131	0
6132	2
6133	5
6134	0
6135	0
6136	1
6137	1
6138	1
6139	3
6140	0
6141	2
6142	1
6143	2
6144	0
6145	1
6146	2
6147	6
6148	0
6149	2
6150	0
6151	2
6152	2
6153	0
6154	2
6155	0
6156	2
6157	1
6158	2
6159	2
6160	1
6161	2
6162	0
6163	1
6164	2
6165	0
6166	1
6167	2
6168	1
6169	1
6170	2
6171	1
6172	3
6173	2
6174	0
6175	1
6176	0
6177	3
6178	2
6179	1
6180	2
6181	2
6182	1
6183	1
6184	1
6185	1
6186	0
6187	1
6188	1
6189	1
6190	1
6191	1
6192	2
6193	1
6194	1
6195	1
6196	1
6197	2
6198	0
6199	0
6200	2
6201	0
6202	1
6203	0
6204	1
6205	1
6206	2
6207	2
6208	2
6209	0
6210	0
6211	1
6212	1
6213	0
6214	0
6215	1
6216	0
6217	1
6218	1
6219	1
6220	0
6221	0
6222	2
6223	0
6224	2
6225	0
6226	1
6227	0
6228	1
6229	0
6230	1
6231	0
6232	0
6233	0
6234	1
6235	0
6236	2
6237	1
6238	3
6239	1
6240	2
6241	2
6242	1
6243	2
6244	2
6245	0
6246	1
6247	1
6248	0
6249	0
6250	0
6251	1
6252	1
6253	1
6254	0
6255	0
6256	2
6257	0
6258	1
6259	1
6260	1
6261	2
6262	1
6263	0
6264	1
6265	0
6266	1
6267	3
6268	1
6269	0
6270	0
6271	1
6272	1
6273	1
6274	1
6275	0
6276	0
6277	0
6278	1
6279	1
6280	1
6281	0
6282	1
6283	1
6284	1
6285	0
6286	1
6287	0
6288	0
6289	1
6290	0
6291	0
6292	0
6293	0
6294	2
6295	1
6296	0
6297	1
6298	0
6299	0
6300	1
6301	0
6302	0
6303	0
6304	0
6305	1
6306	3
6307	1
6308	0
6309	0
6310	0
6311	0
6312	1
6313	1
6314	1
6315	2
6316	0
6317	0
6318	1
6319	1
6320	0
6321	0
6322	0
6323	0
6324	0
6325	3
6326	0
6327	0
6328	1
6329	2
6330	1
6331	1
6332	1
6333	1
6334	0
6335	0
6336	0
6337	1
6338	0
6339	0
6340	0
6341	0
6342	1
6343	0
6344	2
6345	0
6346	0
6347	0
6348	0
6349	0
6350	0
6351	0
6352	0
6353	0
6354	1
6355	2
6356	0
6357	0
6358	0
6359	0
6360	1
6361	0
6362	0
6363	0
6364	1
6365	1
6366	0
6367	1
6368	0
6369	0
6370	2
6371	0
6372	0
6373	0
6374	0
6375	0
6376	1
6377	1
6378	1
6379	1
6380	0
6381	1
6382	0
6383	1
6384	1
6385	0
6386	0
6387	1
6388	0
6389	0
6390	0
6391	0
6392	0
6393	0
6394	0
6395	1
6396	0
6397	1
6398	2
6399	0
6400	0
6401	1
6402	1
6403	0
6404	1
6405	0
6406	0
6407	0
6408	2
6409	1
6410	0
6411	0
6412	0
6413	1
6414	0
6415	0
6416	0
6417	1
6418	0
6419	0
6420	1
6421	0
6422	0
6423	1
6424	0
6425	0
6426	3
6427	0
6428	0
6429	1
6430	0
6431	0
6432	0
6433	0
6434	0
6435	0
6436	0
6437	1
6438	0
6439	1
6440	0
6441	0
6442	2
6443	1
6444	0
6445	0
6446	0
6447	0
6448	0
6449	1
6450	2
6451	1
6452	0
6453	0
6454	1
6455	0
6456	0
6457	0
6458	1
6459	1
6460	0
6461	2
6462	0
6463	1
6464	0
6465	0
6466	0
6467	0
6468	0
6469	0
6470	0
6471	0
6472	1
6473	1
6474	0
6475	0
6476	0
6477	0
6478	0
6479	0
6480	0
6481	0
6482	0
6483	0
6484	0
6485	0
6486	0
6487	0
6488	1
6489	1
6490	1
6491	0
6492	1
6493	1
6494	0
6495	0
6496	0
6497	0
6498	1
6499	0
6500	0
6501	0
6502	0
6503	0
6504	0
6505	1
6506	0
6507	0
6508	0
6509	0
6510	0
6511	0
6512	0
6513	0
6514	0
6515	0
6516	0
6517	0
6518	0
6519	0
6520	2
6521	0
6522	1
6523	0
6524	0
6525	0
6526	2
6527	0
6528	1
6529	0
6530	1
6531	0
6532	0
6533	0
6534	0
6535	1
6536	1
6537	0
6538	0
6539	0
6540	1
6541	1
6542	0
6543	2
6544	1
6545	0
6546	1
6547	0
6548	2
6549	1
6550	3
6551	1
6552	2
6553	7
6554	11
6555	25
6556	24
6557	59
6558	71
6559	90
6560	79
6561	82
6562	63
6563	56
6564	32
6565	13
6566	5
6567	2
6568	3
6569	0
6570	0
6571	0
6572	0
6573	0
6574	0
6575	0
6576	0
6577	0
6578	0
6579	0
6580	1
6581	0
6582	0
6583	0
6584	0
6585	0
6586	0
6587	0
6588	0
6589	0
6590	0
6591	0
6592	0
6593	0
6594	1
6595	0
6596	0
6597	0
6598	0
6599	0
6600	0
6601	0
6602	0
6603	0
6604	0
6605	0
6606	0
6607	0
6608	0
6609	0
6610	0
6611	0
6612	0
6613	0
6614	0
6615	0
6616	0
6617	1
6618	0
6619	0
6620	0
6621	0
6622	0
6623	1
6624	0
6625	0
6626	0
6627	0
6628	0
6629	0
6630	0
6631	0
6632	0
6633	0
6634	0
6635	0
6636	0
6637	0
6638	0
6639	0
6640	0
6641	0
6642	0
6643	0
6644	0
6645	0
6646	0
6647	0
6648	0
6649	0
6650	0
6651	0
6652	0
6653	0
6654	0
6655	1
6656	0
6657	0
6658	0
6659	0
6660	0
6661	0
6662	0
6663	1
6664	0
6665	0
6666	0
6667	0
6668	0
6669	0
6670	0
6671	0
6672	0
6673	0
6674	0
6675	0
6676	0
6677	0
6678	0
6679	0
6680	0
6681	0
6682	0
6683	0
6684	0
6685	0
6686	0
6687	0
6688	0
6689	0
6690	0
6691	1
6692	0
6693	0
6694	0
6695	0
6696	0
6697	0
6698	0
6699	0
6700	0
6701	0
6702	0
6703	1
6704	0
6705	0
6706	0
6707	0
6708	0
6709	0
6710	0
6711	0
6712	0
6713	0
6714	0
6715	0
6716	0
6717	0
6718	0
6719	0
6720	0
6721	0
6722	0
6723	0
6724	0
6725	0
6726	0
6727	0
6728	0
6729	0
6730	0
6731	0
6732	0
6733	0
6734	0
6735	0
6736	0
6737	0
6738	0
6739	0
6740	0
6741	0
6742	0
6743	0
6744	0
6745	0
6746	0
6747	0
6748	0
6749	0
6750	0
6751	0
6752	1
6753	0
6754	0
6755	0
6756	0
6757	0
6758	0
6759	0
6760	0
6761	0
6762	0
6763	0
6764	0
6765	0
6766	0
6767	0
6768	0
6769	2
6770	1
6771	1
6772	0
6773	0
6774	0
6775	0
6776	0
6777	0
6778	0
6779	1
6780	0
6781	0
6782	0
6783	0
6784	0
6785	0
6786	0
6787	0
6788	0
6789	0
6790	0
6791	0
6792	0
6793	0
6794	0
6795	0
6796	0
6797	0
6798	0
6799	0
6800	0
6801	0
6802	0
6803	0
6804	0
6805	0
6806	0
6807	0
6808	0
6809	0
6810	0
6811	0
6812	0
6813	0
6814	0
6815	0
6816	0
6817	1
6818	0
6819	0
6820	0
6821	0
6822	0
6823	0
6824	0
6825	0
6826	0
6827	0
6828	0
6829	0
6830	0
6831	0
6832	0
6833	0
6834	0
6835	0
6836	0
6837	0
6838	0
6839	0
6840	1
6841	1
6842	0
6843	1
6844	1
6845	1
6846	1
6847	1
6848	1
6849	0
6850	0
6851	0
6852	0
6853	0
6854	0
6855	0
6856	1
6857	0
6858	0
6859	0
6860	0
6861	0
6862	0
6863	0
6864	0
6865	0
6866	0
6867	0
6868	0
6869	0
6870	0
6871	0
6872	0
6873	0
6874	0
6875	0
6876	0
6877	0
6878	0
6879	0
6880	0
6881	0
6882	0
6883	0
6884	0
6885	0
6886	0
6887	0
6888	0
6889	0
6890	0
6891	0
6892	0
6893	0
6894	0
6895	0
6896	0
6897	0
6898	0
6899	0
6900	0
6901	0
6902	0
6903	0
6904	0
6905	0
6906	0
6907	0
6908	0
6909	0
6910	0
6911	0
6912	0
6913	0
6914	0
6915	0
6916	0
6917	0
6918	0
6919	0
6920	0
6921	0
6922	0
6923	0
6924	0
6925	0
6926	0
6927	0
6928	0
6929	0
6930	0
6931	0
6932	0
6933	0
6934	0
6935	0
6936	0
6937	0
6938	0
6939	0
6940	0
6941	0
6942	0
6943	0
6944	0
6945	0
6946	0
6947	1
6948	0
6949	0
6950	0
6951	0
6952	0
6953	0
6954	0
6955	0
6956	0
6957	0
6958	0
6959	0
6960	0
6961	0
6962	0
6963	0
6964	0
6965	0
6966	0
6967	1
6968	1
6969	0
6970	0
6971	1
6972	0
6973	0
6974	0
6975	0
6976	0
6977	0
6978	0
6979	0
6980	0
6981	0
6982	0
6983	0
6984	0
6985	0
6986	0
6987	0
6988	0
6989	0
6990	0
6991	0
6992	0
6993	0
6994	0
6995	0
6996	0
6997	0
6998	0
6999	0
7000	0
7001	0
7002	0
7003	0
7004	0
7005	0
7006	0
7007	0
7008	0
7009	0
7010	0
7011	0
7012	0
7013	0
7014	0
7015	0
7016	0
7017	0
7018	0
7019	0
7020	0
7021	0
7022	0
7023	0
7024	1
7025	0
7026	0
7027	0
7028	0
7029	0
7030	0
7031	0
7032	0
7033	0
7034	0
7035	0
7036	0
7037	0
7038	0
7039	0
7040	0
7041	0
7042	0
7043	0
7044	0
7045	0
7046	0
7047	0
7048	0
7049	0
7050	0
7051	0
7052	0
7053	0
7054	0
7055	0
7056	0
7057	0
7058	0
7059	0
7060	0
7061	0
7062	0
7063	0
7064	0
7065	0
7066	1
7067	0
7068	0
7069	0
7070	0
7071	0
7072	0
7073	0
7074	1
7075	0
7076	0
7077	0
7078	0
7079	0
7080	0
7081	0
7082	0
7083	0
7084	0
7085	0
7086	0
7087	0
7088	0
7089	0
7090	0
7091	0
7092	0
7093	0
7094	0
7095	1
7096	0
7097	0
7098	0
7099	0
7100	0
7101	0
7102	0
7103	0
7104	0
7105	0
7106	0
7107	0
7108	1
7109	0
7110	0
7111	0
7112	0
7113	0
7114	0
7115	0
7116	0
7117	0
7118	0
7119	0
7120	0
7121	0
7122	0
7123	0
7124	0
7125	0
7126	0
7127	0
7128	0
7129	0
7130	0
7131	0
7132	0
7133	0
7134	0
7135	0
7136	0
7137	0
7138	0
7139	0
7140	0
7141	0
7142	0
7143	0
7144	0
7145	0
7146	0
7147	0
7148	0
7149	0
7150	0
7151	0
7152	0
7153	0
7154	0
7155	0
7156	0
7157	0
7158	0
7159	0
7160	0
7161	0
7162	0
7163	0
7164	0
7165	0
7166	0
7167	0
7168	0
7169	0
7170	0
7171	0
7172	0
7173	0
7174	0
7175	0
7176	0
7177	0
7178	0
7179	0
7180	0
7181	0
7182	1
7183	0
7184	0
7185	0
7186	0
7187	0
7188	0
7189	0
7190	0
7191	0
7192	0
7193	0
7194	0
7195	0
7196	0
7197	0
7198	0
7199	0
7200	0
7201	0
7202	0
7203	0
7204	0
7205	0
7206	0
7207	0
7208	0
7209	0
7210	0
7211	0
7212	0
7213	0
7214	0
7215	0
7216	0
7217	0
7218	0
7219	0
7220	0
7221	0
7222	0
7223	0
7224	0
7225	0
7226	0
7227	0
7228	0
7229	0
7230	0
7231	0
7232	0
7233	0
7234	0
7235	0
7236	0
7237	0
7238	0
7239	0
7240	0
7241	0
7242	0
7243	0
7244	0
7245	0
7246	0
7247	0
7248	0
7249	0
7250	0
7251	0
7252	0
7253	0
7254	0
7255	0
7256	0
7257	0
7258	0
7259	0
7260	0
7261	0
7262	0
7263	0
7264	0
7265	0
7266	0
7267	0
7268	0
7269	0
7270	0
7271	0
7272	0
7273	0
7274	0
7275	0
7276	0
7277	0
7278	0
7279	0
7280	0
7281	0
7282	0
7283	0
7284	0
7285	0
7286	0
7287	0
7288	0
7289	0
7290	0
7291	1
7292	0
7293	0
7294	0
7295	0
7296	0
7297	0
7298	0
7299	0
7300	0
7301	0
7302	0
7303	0
7304	0
7305	0
7306	0
7307	0
7308	0
7309	0
7310	0
7311	0
7312	0
7313	0
7314	0
7315	0
7316	0
7317	0
7318	0
7319	0
7320	0
7321	0
7322	0
7323	0
7324	0
7325	0
7326	0
7327	0
7328	0
7329	0
7330	0
7331	0
7332	0
7333	0
7334	0
7335	0
7336	0
7337	0
7338	0
7339	1
7340	0
7341	0
7342	0
7343	0
7344	0
7345	0
7346	0
7347	0
7348	0
7349	0
7350	0
7351	0
7352	0
7353	0
7354	0
7355	0
7356	0
7357	0
7358	1
7359	0
7360	0
7361	0
7362	0
7363	0
7364	0
7365	0
7366	0
7367	0
7368	0
7369	0
7370	0
7371	0
7372	0
7373	0
7374	0
7375	0
7376	0
7377	0
7378	0
7379	0
7380	0
7381	0
7382	1
7383	0
7384	0
7385	0
7386	0
7387	0
7388	0
7389	0
7390	0
7391	0
7392	0
7393	0
7394	1
7395	0
7396	0
7397	0
7398	0
7399	0
7400	0
7401	0
7402	0
7403	0
7404	0
7405	0
7406	0
7407	0
7408	0
7409	0
7410	0
7411	0
7412	0
7413	0
7414	0
7415	0
7416	1
7417	0
7418	0
7419	0
7420	0
7421	0
7422	0
7423	0
7424	0
7425	0
7426	0
7427	0
7428	0
7429	0
7430	0
7431	0
7432	0
7433	0
7434	0
7435	0
7436	0
7437	0
7438	0
7439	0
7440	0
7441	0
7442	0
7443	0
7444	0
7445	0
7446	0
7447	0
7448	0
7449	0
7450	0
7451	0
7452	0
7453	0
7454	0
7455	0
7456	0
7457	0
7458	0
7459	0
7460	0
7461	0
7462	0
7463	0
7464	0
7465	0
7466	0
7467	0
7468	0
7469	0
7470	0
7471	0
7472	0
7473	0
7474	0
7475	1
7476	0
7477	0
7478	0
7479	0
7480	0
7481	0
7482	0
7483	0
7484	0
7485	0
7486	1
7487	0
7488	0
7489	0
7490	0
7491	0
7492	1
7493	0
7494	0
7495	0
7496	0
7497	0
7498	0
7499	0
7500	1
7501	0
7502	0
7503	0
7504	0
7505	0
7506	0
7507	0
7508	0
7509	0
7510	0
7511	0
7512	0
7513	0
7514	0
7515	0
7516	0
7517	0
7518	0
7519	0
7520	0
7521	0
7522	0
7523	0
7524	0
7525	0
7526	0
7527	0
7528	0
7529	0
7530	0
7531	0
7532	0
7533	0
7534	0
7535	0
7536	0
7537	0
7538	0
7539	0
7540	0
7541	0
7542	0
7543	0
7544	0
7545	0
7546	0
7547	0
7548	0
7549	0
7550	0
7551	0
7552	0
7553	0
7554	0
7555	0
7556	0
7557	0
7558	0
7559	0
7560	0
7561	0
7562	0
7563	0
7564	0
7565	0
7566	0
7567	0
7568	0
7569	0
7570	0
7571	0
7572	0
7573	0
7574	0
7575	0
7576	0
7577	0
7578	0
7579	0
7580	0
7581	0
7582	0
7583	0
7584	0
7585	0
7586	0
7587	0
7588	0
7589	0
7590	0
7591	0
7592	1
7593	0
7594	0
7595	0
7596	0
7597	0
7598	0
7599	0
7600	0
7601	0
7602	0
7603	0
7604	0
7605	0
7606	1
7607	0
7608	0
7609	0
7610	0
7611	0
7612	0
7613	0
7614	0
7615	0
7616	0
7617	0
7618	0
7619	0
7620	0
7621	0
7622	0
7623	0
7624	0
7625	0
7626	0
7627	0
7628	0
7629	0
7630	0
7631	0
7632	0
7633	0
7634	0
7635	0
7636	0
7637	0
7638	0
7639	0
7640	1
7641	0
7642	0
7643	0
7644	0
7645	0
7646	0
7647	0
7648	0
7649	0
7650	0
7651	0
7652	0
7653	0
7654	0
7655	0
7656	1
7657	0
7658	0
7659	0
7660	0
7661	0
7662	0
7663	0
7664	0
7665	0
7666	0
7667	0
7668	1
7669	0
7670	0
7671	0
7672	0
7673	1
7674	0
7675	0
7676	0
7677	0
7678	0
7679	0
7680	0
7681	0
7682	0
7683	0
7684	0
7685	0
7686	0
7687	0
7688	0
7689	0
7690	0
7691	0
7692	0
7693	0
7694	0
7695	0
7696	0
7697	0
7698	0
7699	0
7700	0
7701	0
7702	0
7703	0
7704	0
7705	0
7706	0
7707	0
7708	0
7709	0
7710	0
7711	0
7712	0
7713	0
7714	0
7715	0
7716	0
7717	0
7718	0
7719	0
7720	0
7721	0
7722	0
7723	0
7724	0
7725	0
7726	0
7727	0
7728	0
7729	0
7730	0
7731	0
7732	0
7733	0
7734	0
7735	0
7736	0
7737	0
7738	0
7739	0
7740	0
7741	0
7742	0
7743	0
7744	0
7745	0
7746	0
7747	0
7748	0
7749	0
7750	0
7751	0
7752	0
7753	0
7754	0
7755	0
7756	0
7757	0
7758	0
7759	0
7760	0
7761	0
7762	0
7763	0
7764	0
7765	0
7766	0
7767	0
7768	0
7769	0
7770	0
7771	0
7772	0
7773	0
7774	0
7775	0
7776	0
7777	0
7778	0
7779	0
7780	0
7781	0
7782	0
7783	0
7784	0
7785	1
7786	0
7787	0
7788	1
7789	0
7790	0
7791	0
7792	0
7793	0
7794	0
7795	0
7796	0
7797	0
7798	0
7799	0
7800	0
7801	0
7802	0
7803	0
7804	0
7805	0
7806	0
7807	0
7808	0
7809	0
7810	0
7811	0
7812	0
7813	0
7814	0
7815	0
7816	0
7817	0
7818	0
7819	0
7820	0
7821	0
7822	0
7823	0
7824	0
7825	0
7826	0
7827	0
7828	1
7829	0
7830	0
7831	0
7832	0
7833	0
7834	0
7835	0
7836	0
7837	1
7838	0
7839	0
7840	0
7841	0
7842	0
7843	0
7844	0
7845	0
7846	0
7847	0
7848	0
7849	0
7850	0
7851	0
7852	0
7853	0
7854	0
7855	0
7856	0
7857	0
7858	0
7859	0
7860	0
7861	0
7862	0
7863	0
7864	0
7865	0
7866	0
7867	0
7868	0
7869	0
7870	0
7871	0
7872	0
7873	0
7874	0
7875	0
7876	0
7877	0
7878	0
7879	0
7880	0
7881	0
7882	0
7883	0
7884	0
7885	0
7886	0
7887	0
7888	0
7889	0
7890	0
7891	0
7892	0
7893	0
7894	0
7895	0
7896	0
7897	0
7898	0
7899	0
7900	0
7901	0
7902	0
7903	0
7904	0
7905	0
7906	0
7907	0
7908	0
7909	0
7910	0
7911	0
7912	0
7913	0
7914	0
7915	0
7916	0
7917	0
7918	0
7919	0
7920	0
7921	0
7922	0
7923	0
7924	0
7925	0
7926	0
7927	0
7928	0
7929	0
7930	0
7931	0
7932	0
7933	0
7934	0
7935	0
7936	0
7937	0
7938	0
7939	0
7940	0
7941	0
7942	0
7943	0
7944	0
7945	0
7946	0
7947	0
7948	0
7949	0
7950	0
7951	0
7952	0
7953	0
7954	0
7955	0
7956	0
7957	0
7958	0
7959	0
7960	0
7961	0
7962	0
7963	0
7964	0
7965	0
7966	0
7967	0
7968	0
7969	0
7970	0
7971	1
7972	0
7973	0
7974	0
7975	0
7976	0
7977	0
7978	0
7979	0
7980	0
7981	0
7982	1
7983	0
7984	0
7985	0
7986	0
7987	1
7988	0
7989	0
7990	0
7991	0
7992	0
7993	0
7994	0
7995	0
7996	0
7997	0
7998	0
7999	0
8000	0
8001	0
8002	0
8003	0
8004	0
8005	0
8006	0
8007	0
8008	0
8009	0
8010	0
8011	0
8012	0
8013	0
8014	0
8015	0
8016	0
8017	1
8018	0
8019	0
8020	0
8021	0
8022	0
8023	0
8024	0
8025	0
8026	0
8027	0
8028	0
8029	0
8030	0
8031	0
8032	0
8033	0
8034	0
8035	0
8036	0
8037	0
8038	0
8039	0
8040	0
8041	0
8042	0
8043	0
8044	0
8045	0
8046	0
8047	0
8048	0
8049	0
8050	0
8051	0
8052	0
8053	0
8054	0
8055	0
8056	0
8057	0
8058	0
8059	0
8060	0
8061	0
8062	0
8063	0
8064	0
8065	0
8066	0
8067	0
8068	0
8069	0
8070	0
8071	0
8072	0
8073	0
8074	0
8075	0
8076	0
8077	0
8078	0
8079	0
8080	0
8081	0
8082	0
8083	0
8084	0
8085	0
8086	0
8087	0
8088	0
8089	0
8090	0
8091	0
8092	0
8093	0
8094	0
8095	0
8096	0
8097	0
8098	0
8099	0
8100	0
8101	0
8102	0
8103	0
8104	0
8105	0
8106	0
8107	0
8108	0
8109	0
8110	0
8111	0
8112	0
8113	0
8114	0
8115	0
8116	0
8117	0
8118	0
8119	0
8120	0
8121	0
8122	0
8123	0
8124	0
8125	0
8126	0
8127	0
8128	0
8129	0
8130	0
8131	0
8132	0
8133	0
8134	0
8135	0
8136	0
8137	0
8138	0
8139	0
8140	0
8141	0
8142	0
8143	0
8144	0
8145	0
8146	0
8147	0
8148	0
8149	0
8150	0
8151	0
8152	0
8153	0
8154	0
8155	0
8156	0
8157	0
8158	0
8159	0
8160	0
8161	0
8162	0
8163	0
8164	0
8165	0
8166	0
8167	0
8168	0
8169	0
8170	0
8171	0
8172	0
8173	0
8174	0
8175	0
8176	0
8177	0
8178	0
8179	0
8180	0
8181	0
8182	0
8183	0
8184	0
8185	0
8186	0
8187	0
8188	0
8189	0
8190	0
8191	0
