0	0
1	0
2	0
3	0
4	0
5	0
6	0
7	0
8	0
9	0
10	0
11	0
12	0
13	0
14	0
15	0
16	0
17	0
18	0
19	0
20	0
21	0
22	0
23	0
24	0
25	0
26	0
27	0
28	0
29	0
30	0
31	0
32	0
33	0
34	0
35	0
36	0
37	0
38	0
39	0
40	0
41	0
42	0
43	0
44	0
45	0
46	0
47	0
48	0
49	0
50	0
51	0
52	0
53	0
54	0
55	0
56	0
57	0
58	0
59	0
60	0
61	0
62	0
63	0
64	0
65	0
66	0
67	0
68	0
69	0
70	0
71	0
72	0
73	0
74	0
75	0
76	0
77	0
78	0
79	0
80	0
81	0
82	0
83	0
84	0
85	0
86	0
87	0
88	0
89	0
90	0
91	0
92	0
93	0
94	0
95	0
96	0
97	0
98	0
99	0
100	0
101	0
102	0
103	0
104	0
105	0
106	0
107	0
108	0
109	0
110	0
111	0
112	0
113	0
114	0
115	0
116	0
117	0
118	91
119	339
120	487
121	615
122	601
123	675
124	614
125	590
126	599
127	589
128	607
129	586
130	586
131	585
132	600
133	552
134	595
135	560
136	579
137	548
138	585
139	545
140	538
141	626
142	625
143	594
144	567
145	545
146	590
147	539
148	517
149	573
150	554
151	580
152	560
153	537
154	543
155	506
156	522
157	505
158	509
159	562
160	585
161	578
162	563
163	556
164	524
165	534
166	524
167	532
168	494
169	539
170	545
171	518
172	515
173	511
174	506
175	486
176	459
177	512
178	467
179	516
180	501
181	514
182	532
183	518
184	515
185	515
186	487
187	524
188	501
189	524
190	500
191	509
192	529
193	480
194	500
195	470
196	495
197	498
198	488
199	499
200	515
201	477
202	513
203	479
204	477
205	508
206	486
207	458
208	438
209	499
210	489
211	507
212	467
213	463
214	561
215	462
216	490
217	452
218	517
219	487
220	482
221	492
222	511
223	501
224	486
225	499
226	492
227	457
228	476
229	465
230	463
231	454
232	494
233	492
234	466
235	459
236	469
237	481
238	494
239	483
240	497
241	518
242	505
243	467
244	482
245	468
246	455
247	492
248	480
249	469
250	485
251	468
252	508
253	492
254	441
255	449
256	462
257	489
258	471
259	465
260	492
261	459
262	455
263	448
264	447
265	495
266	486
267	469
268	479
269	507
270	490
271	472
272	453
273	408
274	460
275	520
276	482
277	457
278	452
279	438
280	459
281	461
282	467
283	478
284	467
285	470
286	450
287	510
288	482
289	483
290	509
291	453
292	518
293	490
294	483
295	477
296	488
297	460
298	501
299	487
300	469
301	476
302	489
303	447
304	465
305	473
306	518
307	467
308	503
309	477
310	495
311	521
312	481
313	493
314	468
315	481
316	444
317	467
318	479
319	516
320	473
321	473
322	446
323	496
324	474
325	464
326	454
327	473
328	471
329	468
330	455
331	499
332	474
333	495
334	505
335	457
336	446
337	463
338	461
339	493
340	490
341	472
342	484
343	464
344	471
345	479
346	497
347	464
348	488
349	465
350	498
351	499
352	469
353	454
354	466
355	507
356	463
357	486
358	472
359	499
360	460
361	469
362	477
363	449
364	466
365	522
366	479
367	485
368	476
369	484
370	475
371	486
372	502
373	510
374	529
375	501
376	449
377	478
378	460
379	515
380	560
381	627
382	793
383	1000
384	1131
385	971
386	758
387	550
388	481
389	470
390	480
391	513
392	468
393	493
394	476
395	453
396	506
397	482
398	480
399	475
400	471
401	464
402	464
403	470
404	508
405	488
406	484
407	467
408	507
409	503
410	485
411	507
412	517
413	477
414	474
415	499
416	478
417	509
418	485
419	512
420	578
421	531
422	510
423	522
424	468
425	454
426	493
427	479
428	446
429	469
430	470
431	517
432	495
433	517
434	440
435	485
436	461
437	499
438	430
439	515
440	504
441	519
442	464
443	449
444	445
445	470
446	476
447	467
448	503
449	490
450	517
451	536
452	524
453	496
454	449
455	503
456	466
457	499
458	475
459	522
460	464
461	514
462	517
463	449
464	498
465	500
466	459
467	489
468	499
469	505
470	481
471	487
472	466
473	507
474	483
475	492
476	541
477	508
478	473
479	475
480	471
481	503
482	473
483	444
484	499
485	501
486	505
487	515
488	481
489	477
490	514
491	461
492	480
493	475
494	501
495	496
496	511
497	491
498	522
499	501
500	515
501	497
502	516
503	518
504	488
505	503
506	511
507	526
508	489
509	490
510	527
511	570
512	505
513	536
514	536
515	541
516	514
517	565
518	515
519	534
520	547
521	521
522	535
523	532
524	565
525	536
526	532
527	570
528	537
529	484
530	549
531	545
532	552
533	569
534	541
535	539
536	573
537	581
538	570
539	555
540	533
541	572
542	559
543	569
544	589
545	526
546	637
547	643
548	615
549	613
550	649
551	606
552	633
553	701
554	606
555	619
556	623
557	614
558	642
559	621
560	602
561	634
562	649
563	554
564	628
565	677
566	609
567	637
568	638
569	573
570	636
571	641
572	598
573	613
574	605
575	636
576	632
577	594
578	612
579	634
580	583
581	596
582	640
583	609
584	596
585	590
586	594
587	603
588	550
589	617
590	575
591	593
592	564
593	598
594	567
595	603
596	599
597	582
598	573
599	609
600	613
601	561
602	563
603	583
604	558
605	586
606	558
607	579
608	563
609	557
610	595
611	618
612	572
613	611
614	595
615	660
616	598
617	613
618	637
619	589
620	637
621	591
622	624
623	599
624	615
625	628
626	613
627	588
628	616
629	591
630	634
631	621
632	607
633	600
634	663
635	614
636	638
637	643
638	606
639	572
640	621
641	625
642	634
643	551
644	577
645	654
646	633
647	629
648	622
649	629
650	607
651	550
652	569
653	619
654	570
655	567
656	566
657	571
658	608
659	582
660	554
661	564
662	545
663	570
664	574
665	549
666	590
667	563
668	484
669	547
670	603
671	537
672	549
673	573
674	520
675	562
676	496
677	544
678	504
679	579
680	558
681	538
682	544
683	530
684	531
685	554
686	509
687	538
688	542
689	510
690	517
691	506
692	515
693	546
694	525
695	498
696	503
697	481
698	500
699	501
700	520
701	524
702	512
703	508
704	463
705	506
706	525
707	505
708	464
709	447
710	504
711	529
712	521
713	539
714	500
715	499
716	499
717	504
718	553
719	496
720	532
721	475
722	498
723	501
724	487
725	477
726	484
727	547
728	532
729	501
730	502
731	489
732	506
733	496
734	492
735	508
736	486
737	492
738	481
739	515
740	464
741	510
742	474
743	487
744	464
745	450
746	487
747	484
748	448
749	444
750	467
751	503
752	507
753	485
754	525
755	497
756	466
757	477
758	481
759	473
760	509
761	504
762	433
763	480
764	485
765	536
766	485
767	453
768	470
769	500
770	516
771	496
772	502
773	488
774	447
775	511
776	535
777	518
778	436
779	485
780	432
781	464
782	490
783	490
784	457
785	484
786	466
787	500
788	471
789	491
790	491
791	454
792	472
793	488
794	433
795	454
796	459
797	452
798	464
799	484
800	466
801	501
802	471
803	474
804	467
805	461
806	437
807	491
808	444
809	441
810	465
811	454
812	483
813	457
814	521
815	432
816	440
817	489
818	483
819	453
820	487
821	483
822	466
823	449
824	474
825	509
826	502
827	479
828	469
829	497
830	447
831	470
832	465
833	461
834	470
835	458
836	469
837	481
838	510
839	457
840	463
841	479
842	510
843	428
844	477
845	488
846	462
847	485
848	469
849	435
850	449
851	484
852	488
853	449
854	472
855	462
856	423
857	473
858	460
859	447
860	481
861	459
862	479
863	457
864	510
865	472
866	485
867	450
868	491
869	447
870	508
871	529
872	475
873	458
874	472
875	504
876	495
877	453
878	438
879	473
880	463
881	473
882	442
883	462
884	444
885	452
886	451
887	473
888	475
889	436
890	481
891	487
892	457
893	471
894	468
895	457
896	480
897	450
898	487
899	475
900	451
901	474
902	433
903	445
904	480
905	498
906	437
907	477
908	448
909	483
910	441
911	466
912	510
913	408
914	453
915	449
916	481
917	466
918	420
919	482
920	466
921	488
922	472
923	466
924	446
925	417
926	468
927	445
928	444
929	452
930	473
931	477
932	435
933	441
934	484
935	484
936	450
937	469
938	479
939	446
940	441
941	450
942	441
943	489
944	411
945	477
946	459
947	416
948	437
949	446
950	468
951	453
952	443
953	399
954	427
955	447
956	427
957	490
958	415
959	428
960	439
961	403
962	418
963	415
964	430
965	428
966	409
967	403
968	448
969	437
970	413
971	415
972	416
973	471
974	409
975	449
976	436
977	434
978	455
979	408
980	402
981	439
982	440
983	395
984	403
985	435
986	457
987	444
988	433
989	429
990	423
991	443
992	403
993	416
994	407
995	428
996	409
997	401
998	392
999	417
1000	408
1001	396
1002	446
1003	428
1004	376
1005	418
1006	380
1007	429
1008	434
1009	462
1010	442
1011	401
1012	411
1013	400
1014	430
1015	429
1016	413
1017	425
1018	423
1019	417
1020	396
1021	471
1022	422
1023	382
1024	375
1025	398
1026	385
1027	424
1028	438
1029	419
1030	429
1031	416
1032	429
1033	429
1034	439
1035	416
1036	433
1037	415
1038	416
1039	426
1040	402
1041	420
1042	379
1043	426
1044	442
1045	405
1046	413
1047	411
1048	421
1049	394
1050	405
1051	440
1052	387
1053	380
1054	421
1055	432
1056	409
1057	419
1058	382
1059	411
1060	419
1061	401
1062	376
1063	388
1064	387
1065	416
1066	414
1067	394
1068	432
1069	386
1070	437
1071	406
1072	390
1073	426
1074	400
1075	414
1076	429
1077	390
1078	389
1079	388
1080	420
1081	398
1082	374
1083	406
1084	395
1085	408
1086	384
1087	372
1088	393
1089	343
1090	421
1091	427
1092	406
1093	395
1094	400
1095	417
1096	410
1097	395
1098	388
1099	396
1100	421
1101	381
1102	375
1103	394
1104	422
1105	452
1106	363
1107	396
1108	388
1109	432
1110	411
1111	385
1112	431
1113	402
1114	405
1115	411
1116	431
1117	383
1118	434
1119	393
1120	405
1121	438
1122	394
1123	399
1124	399
1125	410
1126	410
1127	382
1128	394
1129	405
1130	400
1131	410
1132	399
1133	406
1134	403
1135	426
1136	398
1137	443
1138	404
1139	384
1140	430
1141	412
1142	418
1143	418
1144	427
1145	438
1146	383
1147	409
1148	426
1149	405
1150	395
1151	432
1152	414
1153	447
1154	445
1155	495
1156	429
1157	396
1158	433
1159	449
1160	445
1161	398
1162	406
1163	432
1164	415
1165	411
1166	456
1167	432
1168	449
1169	487
1170	426
1171	440
1172	455
1173	473
1174	426
1175	385
1176	429
1177	442
1178	439
1179	457
1180	416
1181	479
1182	421
1183	427
1184	430
1185	444
1186	459
1187	413
1188	423
1189	418
1190	454
1191	415
1192	438
1193	424
1194	460
1195	427
1196	448
1197	438
1198	481
1199	451
1200	428
1201	453
1202	482
1203	464
1204	457
1205	442
1206	446
1207	487
1208	464
1209	460
1210	483
1211	492
1212	476
1213	468
1214	473
1215	488
1216	456
1217	445
1218	470
1219	450
1220	507
1221	433
1222	490
1223	448
1224	471
1225	468
1226	451
1227	460
1228	492
1229	511
1230	474
1231	493
1232	460
1233	468
1234	474
1235	497
1236	449
1237	479
1238	459
1239	479
1240	516
1241	497
1242	466
1243	462
1244	495
1245	480
1246	491
1247	488
1248	519
1249	494
1250	509
1251	506
1252	487
1253	486
1254	461
1255	484
1256	513
1257	465
1258	512
1259	491
1260	482
1261	483
1262	470
1263	508
1264	498
1265	451
1266	473
1267	481
1268	516
1269	513
1270	485
1271	506
1272	507
1273	530
1274	527
1275	479
1276	523
1277	509
1278	521
1279	488
1280	453
1281	476
1282	483
1283	457
1284	485
1285	498
1286	483
1287	505
1288	493
1289	471
1290	478
1291	465
1292	488
1293	476
1294	491
1295	487
1296	454
1297	461
1298	480
1299	453
1300	495
1301	454
1302	462
1303	452
1304	413
1305	447
1306	412
1307	426
1308	408
1309	400
1310	380
1311	375
1312	362
1313	386
1314	398
1315	350
1316	367
1317	347
1318	364
1319	367
1320	368
1321	376
1322	364
1323	374
1324	360
1325	379
1326	352
1327	364
1328	348
1329	356
1330	302
1331	352
1332	356
1333	337
1334	324
1335	343
1336	328
1337	299
1338	351
1339	311
1340	350
1341	302
1342	287
1343	272
1344	315
1345	329
1346	311
1347	317
1348	319
1349	305
1350	355
1351	307
1352	332
1353	290
1354	355
1355	301
1356	359
1357	288
1358	288
1359	309
1360	326
1361	337
1362	319
1363	323
1364	318
1365	334
1366	282
1367	317
1368	321
1369	293
1370	302
1371	292
1372	332
1373	309
1374	312
1375	301
1376	326
1377	301
1378	352
1379	335
1380	327
1381	367
1382	411
1383	499
1384	669
1385	983
1386	1433
1387	1986
1388	2818
1389	3434
1390	3817
1391	4074
1392	3809
1393	3219
1394	2491
1395	1763
1396	1269
1397	826
1398	550
1399	438
1400	355
1401	285
1402	270
1403	269
1404	281
1405	272
1406	249
1407	251
1408	262
1409	283
1410	258
1411	257
1412	256
1413	205
1414	244
1415	255
1416	242
1417	256
1418	262
1419	244
1420	249
1421	228
1422	262
1423	227
1424	272
1425	245
1426	236
1427	253
1428	251
1429	292
1430	249
1431	241
1432	245
1433	236
1434	215
1435	208
1436	238
1437	247
1438	224
1439	234
1440	241
1441	216
1442	259
1443	218
1444	230
1445	243
1446	228
1447	233
1448	206
1449	227
1450	220
1451	225
1452	216
1453	232
1454	251
1455	225
1456	230
1457	246
1458	250
1459	215
1460	219
1461	221
1462	205
1463	250
1464	227
1465	233
1466	217
1467	215
1468	230
1469	214
1470	202
1471	211
1472	237
1473	207
1474	208
1475	243
1476	208
1477	238
1478	220
1479	235
1480	240
1481	211
1482	236
1483	193
1484	183
1485	233
1486	201
1487	203
1488	215
1489	211
1490	206
1491	224
1492	191
1493	230
1494	207
1495	215
1496	204
1497	199
1498	213
1499	207
1500	187
1501	220
1502	227
1503	213
1504	195
1505	202
1506	207
1507	202
1508	199
1509	194
1510	194
1511	216
1512	214
1513	190
1514	194
1515	184
1516	189
1517	220
1518	186
1519	213
1520	201
1521	200
1522	176
1523	183
1524	196
1525	175
1526	181
1527	195
1528	193
1529	190
1530	196
1531	186
1532	182
1533	178
1534	187
1535	165
1536	206
1537	198
1538	171
1539	170
1540	191
1541	186
1542	195
1543	183
1544	196
1545	165
1546	195
1547	183
1548	189
1549	155
1550	200
1551	213
1552	162
1553	191
1554	173
1555	182
1556	186
1557	188
1558	204
1559	152
1560	195
1561	169
1562	200
1563	201
1564	188
1565	177
1566	188
1567	187
1568	206
1569	173
1570	185
1571	175
1572	185
1573	190
1574	197
1575	188
1576	175
1577	181
1578	204
1579	175
1580	169
1581	170
1582	199
1583	182
1584	183
1585	175
1586	188
1587	181
1588	188
1589	182
1590	197
1591	215
1592	153
1593	185
1594	201
1595	191
1596	164
1597	194
1598	195
1599	191
1600	179
1601	186
1602	177
1603	190
1604	198
1605	183
1606	188
1607	186
1608	208
1609	191
1610	201
1611	170
1612	199
1613	168
1614	185
1615	180
1616	204
1617	142
1618	176
1619	163
1620	198
1621	169
1622	169
1623	177
1624	203
1625	195
1626	180
1627	188
1628	175
1629	181
1630	190
1631	177
1632	179
1633	163
1634	192
1635	175
1636	186
1637	197
1638	163
1639	193
1640	182
1641	185
1642	159
1643	174
1644	186
1645	192
1646	176
1647	197
1648	172
1649	174
1650	191
1651	176
1652	176
1653	187
1654	161
1655	192
1656	183
1657	180
1658	175
1659	173
1660	189
1661	190
1662	181
1663	181
1664	178
1665	163
1666	173
1667	176
1668	190
1669	163
1670	153
1671	167
1672	159
1673	167
1674	193
1675	192
1676	209
1677	189
1678	183
1679	188
1680	174
1681	187
1682	168
1683	188
1684	172
1685	198
1686	154
1687	153
1688	170
1689	183
1690	188
1691	171
1692	150
1693	180
1694	177
1695	162
1696	173
1697	186
1698	164
1699	207
1700	152
1701	188
1702	157
1703	180
1704	170
1705	165
1706	162
1707	192
1708	197
1709	165
1710	195
1711	190
1712	195
1713	166
1714	188
1715	186
1716	178
1717	196
1718	189
1719	168
1720	184
1721	183
1722	203
1723	197
1724	168
1725	176
1726	170
1727	173
1728	176
1729	182
1730	191
1731	191
1732	167
1733	215
1734	188
1735	176
1736	160
1737	189
1738	170
1739	173
1740	187
1741	177
1742	164
1743	151
1744	198
1745	156
1746	182
1747	199
1748	156
1749	172
1750	194
1751	192
1752	209
1753	194
1754	188
1755	179
1756	178
1757	177
1758	204
1759	195
1760	187
1761	183
1762	190
1763	204
1764	158
1765	193
1766	182
1767	176
1768	201
1769	177
1770	196
1771	216
1772	232
1773	231
1774	332
1775	519
1776	1074
1777	2670
1778	6389
1779	13220
1780	20519
1781	24549
1782	22233
1783	15642
1784	7764
1785	2642
1786	796
1787	270
1788	186
1789	153
1790	160
1791	152
1792	157
1793	162
1794	135
1795	177
1796	125
1797	142
1798	131
1799	145
1800	139
1801	149
1802	153
1803	146
1804	141
1805	147
1806	126
1807	134
1808	152
1809	169
1810	143
1811	136
1812	164
1813	152
1814	147
1815	136
1816	123
1817	156
1818	137
1819	135
1820	121
1821	128
1822	136
1823	127
1824	135
1825	151
1826	163
1827	158
1828	154
1829	138
1830	143
1831	150
1832	114
1833	137
1834	151
1835	132
1836	131
1837	138
1838	138
1839	146
1840	134
1841	148
1842	156
1843	153
1844	140
1845	134
1846	148
1847	150
1848	153
1849	150
1850	169
1851	130
1852	135
1853	165
1854	127
1855	153
1856	148
1857	133
1858	143
1859	122
1860	159
1861	128
1862	163
1863	128
1864	126
1865	142
1866	162
1867	150
1868	145
1869	141
1870	140
1871	134
1872	155
1873	140
1874	138
1875	152
1876	151
1877	139
1878	126
1879	148
1880	144
1881	129
1882	158
1883	132
1884	163
1885	152
1886	170
1887	154
1888	135
1889	163
1890	131
1891	146
1892	149
1893	131
1894	150
1895	142
1896	146
1897	139
1898	140
1899	157
1900	145
1901	129
1902	125
1903	158
1904	141
1905	154
1906	133
1907	163
1908	171
1909	143
1910	135
1911	139
1912	128
1913	145
1914	130
1915	138
1916	133
1917	147
1918	149
1919	148
1920	148
1921	154
1922	132
1923	138
1924	142
1925	164
1926	123
1927	125
1928	125
1929	136
1930	158
1931	161
1932	133
1933	155
1934	161
1935	134
1936	154
1937	159
1938	135
1939	130
1940	123
1941	150
1942	162
1943	147
1944	146
1945	137
1946	145
1947	140
1948	148
1949	126
1950	135
1951	145
1952	153
1953	146
1954	154
1955	145
1956	153
1957	144
1958	144
1959	147
1960	140
1961	146
1962	151
1963	129
1964	159
1965	145
1966	137
1967	143
1968	143
1969	139
1970	136
1971	154
1972	141
1973	149
1974	134
1975	143
1976	157
1977	133
1978	136
1979	158
1980	146
1981	144
1982	143
1983	127
1984	161
1985	139
1986	156
1987	146
1988	136
1989	140
1990	141
1991	149
1992	146
1993	140
1994	133
1995	168
1996	166
1997	154
1998	132
1999	149
2000	124
2001	143
2002	141
2003	144
2004	185
2005	150
2006	133
2007	145
2008	145
2009	148
2010	166
2011	144
2012	162
2013	129
2014	143
2015	147
2016	172
2017	137
2018	145
2019	139
2020	163
2021	168
2022	169
2023	164
2024	140
2025	149
2026	180
2027	170
2028	148
2029	158
2030	157
2031	154
2032	153
2033	145
2034	143
2035	143
2036	163
2037	165
2038	154
2039	149
2040	147
2041	133
2042	143
2043	157
2044	149
2045	157
2046	148
2047	171
2048	140
2049	150
2050	170
2051	147
2052	165
2053	147
2054	124
2055	151
2056	160
2057	159
2058	159
2059	171
2060	148
2061	148
2062	153
2063	177
2064	157
2065	171
2066	154
2067	166
2068	136
2069	156
2070	140
2071	136
2072	143
2073	150
2074	168
2075	173
2076	163
2077	140
2078	152
2079	165
2080	155
2081	154
2082	136
2083	164
2084	160
2085	186
2086	173
2087	170
2088	160
2089	164
2090	141
2091	164
2092	145
2093	144
2094	172
2095	144
2096	154
2097	150
2098	155
2099	160
2100	145
2101	160
2102	156
2103	164
2104	160
2105	135
2106	138
2107	171
2108	170
2109	161
2110	165
2111	175
2112	165
2113	162
2114	161
2115	155
2116	162
2117	135
2118	170
2119	165
2120	156
2121	164
2122	160
2123	158
2124	150
2125	156
2126	150
2127	166
2128	177
2129	139
2130	155
2131	140
2132	177
2133	151
2134	192
2135	174
2136	153
2137	172
2138	172
2139	117
2140	148
2141	178
2142	153
2143	163
2144	144
2145	165
2146	156
2147	167
2148	165
2149	175
2150	158
2151	174
2152	158
2153	171
2154	171
2155	168
2156	174
2157	152
2158	158
2159	158
2160	163
2161	167
2162	144
2163	153
2164	153
2165	140
2166	154
2167	146
2168	176
2169	166
2170	192
2171	168
2172	158
2173	150
2174	165
2175	171
2176	142
2177	178
2178	172
2179	155
2180	160
2181	163
2182	158
2183	167
2184	172
2185	148
2186	177
2187	162
2188	184
2189	138
2190	201
2191	202
2192	196
2193	189
2194	207
2195	192
2196	194
2197	203
2198	188
2199	199
2200	184
2201	180
2202	158
2203	168
2204	166
2205	187
2206	194
2207	184
2208	148
2209	181
2210	167
2211	157
2212	161
2213	181
2214	162
2215	175
2216	184
2217	162
2218	172
2219	167
2220	171
2221	177
2222	183
2223	171
2224	172
2225	181
2226	183
2227	175
2228	174
2229	176
2230	173
2231	181
2232	168
2233	163
2234	146
2235	171
2236	188
2237	183
2238	174
2239	169
2240	178
2241	175
2242	178
2243	175
2244	205
2245	173
2246	177
2247	185
2248	195
2249	187
2250	186
2251	187
2252	198
2253	177
2254	175
2255	177
2256	212
2257	173
2258	196
2259	178
2260	189
2261	163
2262	161
2263	160
2264	196
2265	178
2266	172
2267	189
2268	185
2269	186
2270	175
2271	192
2272	166
2273	170
2274	193
2275	204
2276	188
2277	200
2278	184
2279	188
2280	201
2281	174
2282	207
2283	194
2284	177
2285	186
2286	200
2287	161
2288	183
2289	191
2290	183
2291	160
2292	188
2293	182
2294	198
2295	177
2296	180
2297	172
2298	184
2299	195
2300	171
2301	176
2302	148
2303	171
2304	169
2305	160
2306	183
2307	181
2308	189
2309	157
2310	174
2311	176
2312	205
2313	183
2314	201
2315	191
2316	178
2317	197
2318	202
2319	178
2320	195
2321	207
2322	189
2323	191
2324	156
2325	163
2326	207
2327	194
2328	198
2329	185
2330	180
2331	194
2332	189
2333	186
2334	189
2335	158
2336	195
2337	210
2338	198
2339	197
2340	198
2341	189
2342	202
2343	208
2344	201
2345	212
2346	199
2347	195
2348	174
2349	210
2350	190
2351	219
2352	203
2353	206
2354	205
2355	194
2356	216
2357	212
2358	218
2359	199
2360	197
2361	212
2362	190
2363	186
2364	216
2365	189
2366	202
2367	193
2368	199
2369	215
2370	200
2371	205
2372	214
2373	186
2374	221
2375	206
2376	190
2377	186
2378	225
2379	218
2380	195
2381	187
2382	201
2383	198
2384	216
2385	204
2386	247
2387	206
2388	197
2389	206
2390	221
2391	207
2392	198
2393	217
2394	215
2395	225
2396	218
2397	224
2398	219
2399	203
2400	213
2401	224
2402	222
2403	230
2404	253
2405	200
2406	198
2407	213
2408	214
2409	218
2410	191
2411	220
2412	219
2413	210
2414	239
2415	207
2416	215
2417	225
2418	222
2419	222
2420	222
2421	227
2422	216
2423	239
2424	209
2425	241
2426	230
2427	228
2428	235
2429	223
2430	211
2431	224
2432	219
2433	219
2434	205
2435	241
2436	231
2437	200
2438	215
2439	249
2440	261
2441	233
2442	249
2443	225
2444	267
2445	237
2446	214
2447	209
2448	241
2449	233
2450	198
2451	229
2452	235
2453	213
2454	208
2455	246
2456	233
2457	233
2458	250
2459	234
2460	239
2461	226
2462	227
2463	227
2464	209
2465	217
2466	243
2467	229
2468	254
2469	273
2470	236
2471	210
2472	229
2473	217
2474	222
2475	239
2476	242
2477	223
2478	248
2479	263
2480	265
2481	261
2482	240
2483	245
2484	231
2485	229
2486	247
2487	256
2488	259
2489	246
2490	240
2491	262
2492	234
2493	253
2494	239
2495	262
2496	262
2497	249
2498	237
2499	250
2500	254
2501	253
2502	263
2503	273
2504	257
2505	212
2506	245
2507	231
2508	276
2509	258
2510	252
2511	256
2512	289
2513	233
2514	246
2515	259
2516	235
2517	257
2518	260
2519	278
2520	240
2521	258
2522	246
2523	259
2524	261
2525	256
2526	266
2527	272
2528	242
2529	254
2530	246
2531	275
2532	245
2533	257
2534	249
2535	283
2536	264
2537	246
2538	245
2539	243
2540	232
2541	270
2542	225
2543	251
2544	253
2545	267
2546	255
2547	262
2548	255
2549	275
2550	239
2551	227
2552	255
2553	243
2554	233
2555	226
2556	229
2557	266
2558	234
2559	240
2560	244
2561	234
2562	243
2563	215
2564	225
2565	233
2566	241
2567	225
2568	221
2569	231
2570	217
2571	230
2572	201
2573	218
2574	206
2575	221
2576	202
2577	205
2578	209
2579	207
2580	222
2581	185
2582	217
2583	194
2584	211
2585	210
2586	220
2587	188
2588	201
2589	188
2590	216
2591	196
2592	189
2593	188
2594	185
2595	192
2596	194
2597	176
2598	212
2599	186
2600	177
2601	182
2602	204
2603	209
2604	190
2605	197
2606	188
2607	203
2608	187
2609	199
2610	197
2611	198
2612	180
2613	178
2614	179
2615	196
2616	195
2617	191
2618	187
2619	184
2620	184
2621	155
2622	210
2623	183
2624	165
2625	183
2626	173
2627	207
2628	217
2629	197
2630	191
2631	172
2632	172
2633	208
2634	203
2635	190
2636	174
2637	200
2638	190
2639	199
2640	195
2641	193
2642	180
2643	174
2644	170
2645	148
2646	168
2647	170
2648	183
2649	166
2650	194
2651	174
2652	177
2653	164
2654	179
2655	195
2656	188
2657	175
2658	154
2659	190
2660	183
2661	192
2662	184
2663	185
2664	174
2665	152
2666	169
2667	207
2668	173
2669	173
2670	202
2671	191
2672	178
2673	179
2674	192
2675	204
2676	176
2677	192
2678	188
2679	153
2680	181
2681	169
2682	174
2683	180
2684	167
2685	200
2686	195
2687	187
2688	175
2689	194
2690	186
2691	184
2692	163
2693	182
2694	193
2695	174
2696	202
2697	184
2698	186
2699	176
2700	170
2701	179
2702	176
2703	171
2704	164
2705	161
2706	167
2707	163
2708	161
2709	174
2710	155
2711	180
2712	181
2713	169
2714	212
2715	195
2716	170
2717	175
2718	195
2719	195
2720	170
2721	157
2722	177
2723	171
2724	174
2725	170
2726	191
2727	155
2728	162
2729	172
2730	186
2731	194
2732	172
2733	182
2734	172
2735	193
2736	173
2737	186
2738	153
2739	185
2740	194
2741	158
2742	185
2743	171
2744	147
2745	169
2746	184
2747	172
2748	151
2749	162
2750	164
2751	185
2752	179
2753	183
2754	145
2755	179
2756	183
2757	175
2758	188
2759	185
2760	210
2761	180
2762	165
2763	170
2764	179
2765	157
2766	174
2767	155
2768	186
2769	180
2770	179
2771	175
2772	174
2773	155
2774	166
2775	179
2776	201
2777	170
2778	178
2779	155
2780	167
2781	161
2782	174
2783	187
2784	157
2785	169
2786	180
2787	161
2788	153
2789	170
2790	165
2791	164
2792	170
2793	181
2794	186
2795	159
2796	188
2797	159
2798	165
2799	162
2800	160
2801	176
2802	160
2803	183
2804	181
2805	158
2806	180
2807	153
2808	163
2809	164
2810	170
2811	169
2812	137
2813	167
2814	177
2815	152
2816	167
2817	182
2818	149
2819	164
2820	165
2821	153
2822	176
2823	158
2824	162
2825	172
2826	163
2827	171
2828	161
2829	160
2830	136
2831	163
2832	161
2833	170
2834	167
2835	161
2836	149
2837	140
2838	167
2839	157
2840	145
2841	144
2842	176
2843	182
2844	178
2845	172
2846	177
2847	154
2848	178
2849	196
2850	169
2851	167
2852	175
2853	146
2854	168
2855	172
2856	153
2857	156
2858	172
2859	172
2860	155
2861	175
2862	163
2863	170
2864	161
2865	186
2866	167
2867	159
2868	191
2869	183
2870	133
2871	178
2872	166
2873	164
2874	167
2875	182
2876	177
2877	183
2878	169
2879	171
2880	166
2881	167
2882	177
2883	160
2884	183
2885	151
2886	180
2887	188
2888	171
2889	144
2890	170
2891	180
2892	159
2893	176
2894	178
2895	167
2896	165
2897	185
2898	168
2899	169
2900	191
2901	158
2902	160
2903	155
2904	178
2905	168
2906	156
2907	185
2908	179
2909	173
2910	179
2911	178
2912	176
2913	189
2914	186
2915	175
2916	175
2917	184
2918	174
2919	196
2920	184
2921	161
2922	159
2923	183
2924	171
2925	202
2926	178
2927	190
2928	193
2929	177
2930	168
2931	190
2932	199
2933	153
2934	194
2935	183
2936	172
2937	198
2938	178
2939	183
2940	191
2941	191
2942	161
2943	169
2944	190
2945	191
2946	156
2947	173
2948	176
2949	208
2950	152
2951	175
2952	156
2953	196
2954	165
2955	165
2956	176
2957	167
2958	161
2959	170
2960	158
2961	152
2962	137
2963	141
2964	156
2965	157
2966	134
2967	144
2968	140
2969	121
2970	134
2971	135
2972	150
2973	130
2974	127
2975	130
2976	133
2977	139
2978	123
2979	100
2980	149
2981	120
2982	116
2983	121
2984	121
2985	111
2986	114
2987	119
2988	126
2989	112
2990	123
2991	132
2992	113
2993	124
2994	135
2995	120
2996	129
2997	131
2998	93
2999	114
3000	104
3001	101
3002	89
3003	94
3004	111
3005	109
3006	115
3007	117
3008	106
3009	113
3010	90
3011	101
3012	109
3013	112
3014	105
3015	91
3016	106
3017	112
3018	107
3019	108
3020	111
3021	109
3022	95
3023	102
3024	109
3025	93
3026	96
3027	96
3028	91
3029	88
3030	103
3031	94
3032	112
3033	103
3034	114
3035	100
3036	92
3037	100
3038	109
3039	104
3040	84
3041	100
3042	97
3043	84
3044	93
3045	82
3046	110
3047	91
3048	111
3049	95
3050	89
3051	108
3052	97
3053	99
3054	87
3055	84
3056	112
3057	84
3058	88
3059	81
3060	79
3061	95
3062	91
3063	93
3064	90
3065	110
3066	84
3067	107
3068	76
3069	81
3070	92
3071	94
3072	75
3073	80
3074	93
3075	91
3076	69
3077	78
3078	80
3079	88
3080	91
3081	104
3082	78
3083	98
3084	93
3085	86
3086	88
3087	91
3088	90
3089	81
3090	96
3091	84
3092	73
3093	90
3094	79
3095	89
3096	89
3097	102
3098	115
3099	153
3100	242
3101	580
3102	1308
3103	2808
3104	5223
3105	8164
3106	10603
3107	10750
3108	8775
3109	5840
3110	3138
3111	1285
3112	461
3113	158
3114	111
3115	87
3116	86
3117	67
3118	63
3119	71
3120	70
3121	67
3122	64
3123	58
3124	101
3125	63
3126	71
3127	78
3128	63
3129	66
3130	66
3131	61
3132	69
3133	60
3134	63
3135	65
3136	59
3137	59
3138	64
3139	50
3140	69
3141	63
3142	46
3143	52
3144	56
3145	69
3146	61
3147	61
3148	64
3149	55
3150	63
3151	64
3152	50
3153	43
3154	53
3155	57
3156	53
3157	55
3158	68
3159	52
3160	51
3161	59
3162	50
3163	54
3164	47
3165	52
3166	41
3167	45
3168	38
3169	53
3170	62
3171	54
3172	38
3173	52
3174	55
3175	48
3176	40
3177	47
3178	76
3179	45
3180	44
3181	51
3182	39
3183	57
3184	47
3185	47
3186	37
3187	51
3188	56
3189	39
3190	51
3191	49
3192	45
3193	37
3194	46
3195	38
3196	56
3197	46
3198	37
3199	47
3200	47
3201	53
3202	44
3203	37
3204	35
3205	48
3206	37
3207	43
3208	43
3209	42
3210	43
3211	34
3212	36
3213	41
3214	34
3215	32
3216	31
3217	38
3218	36
3219	39
3220	24
3221	35
3222	34
3223	40
3224	31
3225	31
3226	31
3227	34
3228	43
3229	28
3230	33
3231	43
3232	33
3233	32
3234	24
3235	30
3236	47
3237	32
3238	32
3239	36
3240	38
3241	36
3242	31
3243	28
3244	39
3245	37
3246	22
3247	28
3248	30
3249	31
3250	32
3251	35
3252	26
3253	27
3254	27
3255	28
3256	27
3257	21
3258	34
3259	27
3260	26
3261	22
3262	27
3263	17
3264	23
3265	19
3266	33
3267	28
3268	26
3269	30
3270	27
3271	32
3272	25
3273	26
3274	39
3275	20
3276	19
3277	29
3278	43
3279	18
3280	18
3281	19
3282	26
3283	21
3284	29
3285	22
3286	21
3287	24
3288	34
3289	24
3290	20
3291	37
3292	25
3293	20
3294	23
3295	22
3296	18
3297	22
3298	31
3299	25
3300	31
3301	25
3302	30
3303	22
3304	19
3305	31
3306	26
3307	19
3308	30
3309	21
3310	28
3311	22
3312	20
3313	28
3314	17
3315	18
3316	20
3317	25
3318	22
3319	15
3320	25
3321	18
3322	22
3323	25
3324	16
3325	18
3326	21
3327	14
3328	19
3329	17
3330	25
3331	22
3332	24
3333	22
3334	28
3335	21
3336	20
3337	25
3338	17
3339	16
3340	20
3341	21
3342	9
3343	22
3344	36
3345	21
3346	20
3347	28
3348	22
3349	16
3350	24
3351	25
3352	24
3353	17
3354	14
3355	19
3356	22
3357	25
3358	26
3359	22
3360	15
3361	26
3362	27
3363	60
3364	120
3365	281
3366	571
3367	897
3368	1308
3369	1441
3370	1384
3371	1034
3372	685
3373	304
3374	140
3375	69
3376	26
3377	20
3378	12
3379	25
3380	21
3381	20
3382	9
3383	16
3384	15
3385	20
3386	17
3387	20
3388	17
3389	11
3390	10
3391	23
3392	18
3393	18
3394	19
3395	19
3396	24
3397	15
3398	15
3399	24
3400	15
3401	12
3402	14
3403	15
3404	11
3405	16
3406	16
3407	21
3408	19
3409	15
3410	11
3411	13
3412	22
3413	13
3414	17
3415	19
3416	20
3417	18
3418	22
3419	13
3420	15
3421	28
3422	23
3423	13
3424	23
3425	25
3426	19
3427	19
3428	15
3429	18
3430	18
3431	18
3432	14
3433	11
3434	22
3435	13
3436	8
3437	12
3438	13
3439	18
3440	9
3441	15
3442	14
3443	19
3444	21
3445	24
3446	18
3447	10
3448	14
3449	24
3450	13
3451	18
3452	12
3453	17
3454	11
3455	22
3456	12
3457	18
3458	17
3459	15
3460	25
3461	12
3462	17
3463	15
3464	9
3465	16
3466	15
3467	14
3468	27
3469	21
3470	13
3471	19
3472	22
3473	10
3474	21
3475	18
3476	21
3477	23
3478	19
3479	20
3480	26
3481	18
3482	13
3483	16
3484	18
3485	20
3486	13
3487	15
3488	4
3489	12
3490	21
3491	19
3492	23
3493	18
3494	19
3495	14
3496	14
3497	20
3498	20
3499	20
3500	19
3501	17
3502	20
3503	21
3504	27
3505	12
3506	25
3507	24
3508	23
3509	26
3510	33
3511	61
3512	105
3513	282
3514	637
3515	1487
3516	2989
3517	5321
3518	7667
3519	9126
3520	9035
3521	7309
3522	4699
3523	2511
3524	1060
3525	355
3526	100
3527	29
3528	19
3529	14
3530	11
3531	23
3532	18
3533	18
3534	10
3535	20
3536	13
3537	15
3538	11
3539	8
3540	5
3541	11
3542	10
3543	15
3544	8
3545	15
3546	13
3547	6
3548	3
3549	10
3550	12
3551	8
3552	13
3553	8
3554	8
3555	9
3556	6
3557	11
3558	7
3559	8
3560	8
3561	11
3562	8
3563	9
3564	5
3565	8
3566	8
3567	8
3568	9
3569	7
3570	11
3571	3
3572	10
3573	5
3574	11
3575	7
3576	5
3577	8
3578	13
3579	11
3580	9
3581	10
3582	9
3583	6
3584	11
3585	8
3586	8
3587	8
3588	11
3589	5
3590	4
3591	2
3592	6
3593	7
3594	5
3595	7
3596	13
3597	9
3598	6
3599	9
3600	3
3601	5
3602	3
3603	7
3604	6
3605	8
3606	12
3607	9
3608	7
3609	6
3610	5
3611	11
3612	6
3613	7
3614	5
3615	8
3616	9
3617	6
3618	6
3619	6
3620	9
3621	8
3622	10
3623	13
3624	5
3625	6
3626	6
3627	8
3628	7
3629	11
3630	13
3631	9
3632	7
3633	3
3634	6
3635	7
3636	5
3637	4
3638	10
3639	11
3640	4
3641	10
3642	8
3643	4
3644	7
3645	3
3646	9
3647	7
3648	11
3649	1
3650	7
3651	7
3652	7
3653	5
3654	5
3655	8
3656	10
3657	6
3658	7
3659	5
3660	7
3661	8
3662	11
3663	6
3664	7
3665	8
3666	5
3667	7
3668	6
3669	10
3670	6
3671	6
3672	8
3673	10
3674	7
3675	3
3676	6
3677	5
3678	12
3679	3
3680	3
3681	7
3682	1
3683	5
3684	2
3685	6
3686	8
3687	7
3688	3
3689	10
3690	8
3691	10
3692	10
3693	6
3694	6
3695	13
3696	2
3697	9
3698	5
3699	10
3700	1
3701	6
3702	10
3703	5
3704	4
3705	6
3706	8
3707	3
3708	8
3709	6
3710	4
3711	7
3712	6
3713	8
3714	5
3715	6
3716	2
3717	10
3718	7
3719	7
3720	8
3721	6
3722	7
3723	4
3724	5
3725	11
3726	10
3727	3
3728	8
3729	8
3730	1
3731	5
3732	5
3733	9
3734	11
3735	7
3736	9
3737	8
3738	4
3739	6
3740	10
3741	9
3742	3
3743	4
3744	5
3745	7
3746	5
3747	10
3748	9
3749	10
3750	5
3751	7
3752	9
3753	3
3754	6
3755	6
3756	5
3757	8
3758	4
3759	9
3760	7
3761	6
3762	9
3763	9
3764	5
3765	6
3766	5
3767	4
3768	7
3769	3
3770	3
3771	6
3772	4
3773	6
3774	7
3775	10
3776	5
3777	6
3778	10
3779	4
3780	6
3781	7
3782	6
3783	9
3784	4
3785	3
3786	3
3787	4
3788	7
3789	10
3790	10
3791	6
3792	6
3793	6
3794	2
3795	8
3796	8
3797	6
3798	5
3799	2
3800	7
3801	3
3802	6
3803	3
3804	8
3805	8
3806	3
3807	9
3808	2
3809	10
3810	5
3811	2
3812	6
3813	8
3814	3
3815	10
3816	5
3817	4
3818	3
3819	3
3820	8
3821	8
3822	4
3823	7
3824	2
3825	2
3826	6
3827	8
3828	5
3829	3
3830	3
3831	3
3832	6
3833	10
3834	8
3835	7
3836	1
3837	3
3838	5
3839	4
3840	4
3841	8
3842	7
3843	8
3844	9
3845	7
3846	5
3847	10
3848	7
3849	8
3850	9
3851	4
3852	5
3853	6
3854	5
3855	4
3856	7
3857	6
3858	3
3859	7
3860	4
3861	5
3862	7
3863	5
3864	8
3865	5
3866	2
3867	0
3868	10
3869	4
3870	8
3871	8
3872	3
3873	9
3874	5
3875	2
3876	5
3877	6
3878	4
3879	8
3880	4
3881	4
3882	4
3883	4
3884	3
3885	5
3886	12
3887	4
3888	5
3889	4
3890	7
3891	7
3892	5
3893	8
3894	3
3895	3
3896	5
3897	4
3898	5
3899	3
3900	4
3901	7
3902	3
3903	4
3904	4
3905	6
3906	7
3907	2
3908	5
3909	6
3910	2
3911	4
3912	7
3913	7
3914	9
3915	6
3916	3
3917	5
3918	6
3919	9
3920	8
3921	3
3922	2
3923	6
3924	8
3925	6
3926	5
3927	7
3928	5
3929	6
3930	4
3931	8
3932	4
3933	3
3934	8
3935	4
3936	5
3937	6
3938	10
3939	10
3940	5
3941	7
3942	7
3943	7
3944	7
3945	4
3946	3
3947	8
3948	6
3949	2
3950	6
3951	8
3952	6
3953	3
3954	5
3955	5
3956	3
3957	2
3958	7
3959	4
3960	5
3961	3
3962	5
3963	5
3964	12
3965	2
3966	5
3967	3
3968	2
3969	7
3970	8
3971	2
3972	0
3973	8
3974	4
3975	4
3976	3
3977	8
3978	8
3979	2
3980	3
3981	4
3982	4
3983	3
3984	5
3985	2
3986	5
3987	5
3988	7
3989	4
3990	7
3991	1
3992	5
3993	7
3994	6
3995	5
3996	8
3997	5
3998	6
3999	4
4000	6
4001	2
4002	7
4003	5
4004	6
4005	3
4006	5
4007	3
4008	3
4009	4
4010	5
4011	5
4012	8
4013	4
4014	7
4015	2
4016	6
4017	4
4018	5
4019	5
4020	6
4021	7
4022	2
4023	1
4024	2
4025	4
4026	5
4027	7
4028	5
4029	1
4030	2
4031	5
4032	4
4033	2
4034	8
4035	4
4036	5
4037	9
4038	3
4039	4
4040	7
4041	3
4042	2
4043	2
4044	2
4045	3
4046	4
4047	3
4048	6
4049	0
4050	1
4051	5
4052	4
4053	7
4054	4
4055	8
4056	12
4057	7
4058	2
4059	5
4060	6
4061	7
4062	6
4063	1
4064	7
4065	5
4066	4
4067	11
4068	4
4069	8
4070	2
4071	7
4072	3
4073	6
4074	11
4075	7
4076	4
4077	9
4078	5
4079	6
4080	4
4081	10
4082	4
4083	2
4084	6
4085	3
4086	6
4087	3
4088	9
4089	3
4090	4
4091	6
4092	3
4093	6
4094	2
4095	3
4096	4
4097	3
4098	7
4099	2
4100	6
4101	5
4102	3
4103	10
4104	9
4105	7
4106	4
4107	3
4108	3
4109	5
4110	6
4111	7
4112	3
4113	7
4114	5
4115	8
4116	6
4117	6
4118	6
4119	5
4120	6
4121	4
4122	4
4123	4
4124	5
4125	5
4126	7
4127	8
4128	10
4129	3
4130	3
4131	4
4132	6
4133	5
4134	7
4135	5
4136	8
4137	1
4138	8
4139	5
4140	4
4141	8
4142	5
4143	3
4144	2
4145	7
4146	3
4147	5
4148	5
4149	4
4150	6
4151	3
4152	4
4153	9
4154	11
4155	4
4156	6
4157	2
4158	5
4159	3
4160	5
4161	6
4162	6
4163	12
4164	5
4165	4
4166	7
4167	6
4168	6
4169	3
4170	3
4171	6
4172	7
4173	5
4174	5
4175	4
4176	5
4177	5
4178	4
4179	6
4180	2
4181	3
4182	3
4183	8
4184	5
4185	2
4186	10
4187	2
4188	6
4189	6
4190	7
4191	3
4192	6
4193	4
4194	6
4195	3
4196	8
4197	2
4198	2
4199	3
4200	7
4201	3
4202	5
4203	7
4204	2
4205	10
4206	3
4207	7
4208	9
4209	6
4210	7
4211	4
4212	7
4213	6
4214	3
4215	2
4216	1
4217	6
4218	4
4219	3
4220	3
4221	4
4222	4
4223	7
4224	3
4225	3
4226	6
4227	5
4228	5
4229	6
4230	1
4231	5
4232	5
4233	4
4234	4
4235	5
4236	3
4237	7
4238	3
4239	3
4240	7
4241	5
4242	3
4243	7
4244	4
4245	6
4246	5
4247	2
4248	6
4249	3
4250	3
4251	2
4252	5
4253	6
4254	4
4255	5
4256	3
4257	6
4258	4
4259	4
4260	5
4261	4
4262	2
4263	6
4264	4
4265	6
4266	2
4267	5
4268	3
4269	4
4270	4
4271	5
4272	6
4273	2
4274	4
4275	3
4276	3
4277	4
4278	7
4279	7
4280	5
4281	4
4282	3
4283	1
4284	3
4285	7
4286	2
4287	2
4288	5
4289	3
4290	4
4291	4
4292	1
4293	4
4294	5
4295	2
4296	5
4297	6
4298	3
4299	5
4300	6
4301	2
4302	4
4303	7
4304	1
4305	2
4306	1
4307	2
4308	4
4309	2
4310	2
4311	3
4312	4
4313	5
4314	5
4315	4
4316	3
4317	2
4318	2
4319	6
4320	3
4321	6
4322	5
4323	0
4324	4
4325	3
4326	1
4327	5
4328	2
4329	6
4330	5
4331	4
4332	4
4333	6
4334	5
4335	4
4336	6
4337	2
4338	3
4339	2
4340	3
4341	6
4342	3
4343	4
4344	2
4345	7
4346	7
4347	2
4348	6
4349	1
4350	1
4351	2
4352	3
4353	4
4354	5
4355	5
4356	5
4357	3
4358	3
4359	6
4360	4
4361	2
4362	4
4363	3
4364	7
4365	1
4366	4
4367	3
4368	4
4369	0
4370	7
4371	3
4372	5
4373	2
4374	3
4375	4
4376	8
4377	4
4378	6
4379	1
4380	4
4381	3
4382	5
4383	4
4384	5
4385	4
4386	7
4387	10
4388	7
4389	5
4390	2
4391	2
4392	4
4393	4
4394	3
4395	6
4396	1
4397	4
4398	6
4399	6
4400	1
4401	5
4402	3
4403	8
4404	3
4405	4
4406	6
4407	0
4408	2
4409	1
4410	4
4411	2
4412	5
4413	4
4414	2
4415	3
4416	5
4417	1
4418	6
4419	3
4420	1
4421	2
4422	4
4423	5
4424	3
4425	1
4426	8
4427	4
4428	5
4429	4
4430	2
4431	6
4432	5
4433	2
4434	4
4435	4
4436	8
4437	2
4438	5
4439	2
4440	9
4441	8
4442	3
4443	8
4444	4
4445	5
4446	5
4447	3
4448	6
4449	2
4450	2
4451	4
4452	3
4453	3
4454	5
4455	6
4456	2
4457	3
4458	2
4459	4
4460	6
4461	3
4462	4
4463	6
4464	4
4465	8
4466	2
4467	5
4468	3
4469	4
4470	3
4471	3
4472	3
4473	4
4474	2
4475	3
4476	3
4477	6
4478	2
4479	2
4480	0
4481	3
4482	7
4483	6
4484	1
4485	3
4486	1
4487	3
4488	3
4489	3
4490	5
4491	4
4492	5
4493	2
4494	5
4495	4
4496	6
4497	5
4498	6
4499	3
4500	1
4501	1
4502	3
4503	2
4504	5
4505	2
4506	6
4507	3
4508	0
4509	4
4510	4
4511	4
4512	7
4513	4
4514	2
4515	3
4516	3
4517	5
4518	1
4519	3
4520	7
4521	5
4522	2
4523	3
4524	6
4525	1
4526	0
4527	4
4528	4
4529	4
4530	3
4531	7
4532	4
4533	5
4534	3
4535	6
4536	5
4537	4
4538	5
4539	3
4540	0
4541	2
4542	2
4543	5
4544	4
4545	2
4546	4
4547	4
4548	1
4549	5
4550	4
4551	2
4552	0
4553	5
4554	2
4555	2
4556	3
4557	7
4558	1
4559	3
4560	3
4561	4
4562	3
4563	7
4564	5
4565	6
4566	7
4567	4
4568	7
4569	3
4570	3
4571	1
4572	7
4573	1
4574	4
4575	4
4576	2
4577	3
4578	2
4579	3
4580	3
4581	3
4582	1
4583	3
4584	5
4585	6
4586	7
4587	2
4588	2
4589	5
4590	7
4591	2
4592	3
4593	3
4594	4
4595	2
4596	2
4597	2
4598	8
4599	3
4600	7
4601	1
4602	3
4603	2
4604	3
4605	4
4606	1
4607	5
4608	5
4609	6
4610	4
4611	1
4612	1
4613	3
4614	4
4615	0
4616	1
4617	4
4618	6
4619	2
4620	2
4621	4
4622	5
4623	2
4624	5
4625	1
4626	3
4627	4
4628	2
4629	6
4630	6
4631	2
4632	4
4633	6
4634	3
4635	8
4636	2
4637	1
4638	2
4639	3
4640	4
4641	3
4642	3
4643	7
4644	3
4645	3
4646	1
4647	3
4648	5
4649	4
4650	4
4651	3
4652	1
4653	2
4654	2
4655	6
4656	7
4657	1
4658	1
4659	6
4660	3
4661	4
4662	2
4663	4
4664	5
4665	3
4666	1
4667	2
4668	0
4669	4
4670	3
4671	1
4672	3
4673	4
4674	3
4675	1
4676	3
4677	3
4678	6
4679	4
4680	6
4681	3
4682	2
4683	2
4684	3
4685	8
4686	6
4687	9
4688	11
4689	11
4690	10
4691	13
4692	21
4693	21
4694	23
4695	19
4696	16
4697	16
4698	8
4699	10
4700	4
4701	4
4702	4
4703	1
4704	2
4705	2
4706	2
4707	1
4708	5
4709	4
4710	5
4711	4
4712	9
4713	1
4714	2
4715	3
4716	3
4717	1
4718	5
4719	3
4720	5
4721	3
4722	4
4723	6
4724	1
4725	2
4726	1
4727	2
4728	3
4729	3
4730	1
4731	3
4732	4
4733	2
4734	4
4735	3
4736	2
4737	2
4738	3
4739	1
4740	6
4741	4
4742	1
4743	0
4744	1
4745	5
4746	3
4747	2
4748	5
4749	2
4750	3
4751	3
4752	3
4753	4
4754	2
4755	3
4756	6
4757	3
4758	6
4759	4
4760	2
4761	4
4762	1
4763	2
4764	3
4765	1
4766	1
4767	1
4768	4
4769	3
4770	3
4771	4
4772	3
4773	2
4774	5
4775	1
4776	4
4777	2
4778	3
4779	3
4780	1
4781	3
4782	2
4783	2
4784	2
4785	1
4786	2
4787	1
4788	0
4789	3
4790	3
4791	6
4792	0
4793	1
4794	6
4795	1
4796	2
4797	2
4798	0
4799	4
4800	5
4801	2
4802	0
4803	3
4804	2
4805	4
4806	5
4807	4
4808	4
4809	4
4810	6
4811	7
4812	5
4813	3
4814	1
4815	4
4816	6
4817	3
4818	4
4819	7
4820	3
4821	1
4822	4
4823	3
4824	5
4825	4
4826	2
4827	5
4828	3
4829	4
4830	3
4831	1
4832	2
4833	7
4834	2
4835	4
4836	1
4837	2
4838	2
4839	5
4840	2
4841	4
4842	5
4843	4
4844	1
4845	1
4846	3
4847	4
4848	2
4849	5
4850	1
4851	3
4852	4
4853	4
4854	1
4855	3
4856	3
4857	1
4858	5
4859	1
4860	1
4861	3
4862	1
4863	1
4864	3
4865	2
4866	2
4867	3
4868	2
4869	3
4870	3
4871	2
4872	1
4873	2
4874	2
4875	3
4876	2
4877	3
4878	2
4879	5
4880	2
4881	1
4882	3
4883	2
4884	2
4885	3
4886	1
4887	3
4888	4
4889	6
4890	2
4891	1
4892	3
4893	4
4894	2
4895	1
4896	3
4897	2
4898	5
4899	3
4900	3
4901	3
4902	4
4903	4
4904	6
4905	4
4906	3
4907	6
4908	4
4909	3
4910	4
4911	4
4912	2
4913	2
4914	4
4915	4
4916	4
4917	3
4918	5
4919	2
4920	2
4921	6
4922	3
4923	1
4924	4
4925	3
4926	1
4927	5
4928	1
4929	2
4930	5
4931	1
4932	3
4933	2
4934	2
4935	4
4936	2
4937	4
4938	2
4939	3
4940	5
4941	3
4942	0
4943	4
4944	5
4945	6
4946	5
4947	1
4948	4
4949	5
4950	6
4951	1
4952	5
4953	1
4954	6
4955	5
4956	2
4957	4
4958	1
4959	3
4960	4
4961	2
4962	3
4963	1
4964	5
4965	4
4966	4
4967	1
4968	0
4969	5
4970	5
4971	5
4972	3
4973	4
4974	1
4975	4
4976	6
4977	3
4978	6
4979	5
4980	4
4981	4
4982	2
4983	3
4984	4
4985	2
4986	3
4987	4
4988	5
4989	2
4990	1
4991	1
4992	3
4993	0
4994	4
4995	1
4996	5
4997	1
4998	1
4999	3
5000	2
5001	3
5002	1
5003	3
5004	5
5005	2
5006	2
5007	2
5008	3
5009	5
5010	3
5011	4
5012	5
5013	3
5014	4
5015	5
5016	2
5017	4
5018	3
5019	3
5020	1
5021	3
5022	5
5023	2
5024	5
5025	4
5026	3
5027	2
5028	7
5029	2
5030	5
5031	2
5032	3
5033	6
5034	2
5035	7
5036	4
5037	3
5038	7
5039	3
5040	2
5041	6
5042	3
5043	5
5044	1
5045	3
5046	2
5047	1
5048	0
5049	5
5050	3
5051	2
5052	1
5053	8
5054	5
5055	4
5056	2
5057	4
5058	3
5059	0
5060	5
5061	2
5062	2
5063	3
5064	1
5065	5
5066	2
5067	1
5068	1
5069	3
5070	1
5071	2
5072	3
5073	8
5074	2
5075	2
5076	7
5077	4
5078	4
5079	3
5080	6
5081	2
5082	3
5083	6
5084	2
5085	2
5086	5
5087	6
5088	6
5089	2
5090	10
5091	5
5092	4
5093	4
5094	3
5095	4
5096	1
5097	2
5098	3
5099	4
5100	7
5101	2
5102	1
5103	2
5104	5
5105	3
5106	2
5107	1
5108	5
5109	0
5110	4
5111	3
5112	2
5113	2
5114	6
5115	1
5116	3
5117	1
5118	4
5119	4
5120	5
5121	0
5122	3
5123	5
5124	2
5125	5
5126	5
5127	1
5128	8
5129	2
5130	4
5131	1
5132	1
5133	7
5134	3
5135	3
5136	3
5137	8
5138	2
5139	2
5140	1
5141	4
5142	4
5143	5
5144	6
5145	3
5146	3
5147	3
5148	4
5149	4
5150	5
5151	2
5152	1
5153	4
5154	4
5155	5
5156	2
5157	2
5158	2
5159	3
5160	6
5161	3
5162	4
5163	3
5164	4
5165	2
5166	4
5167	3
5168	2
5169	2
5170	3
5171	5
5172	4
5173	7
5174	0
5175	5
5176	6
5177	2
5178	3
5179	4
5180	2
5181	2
5182	5
5183	5
5184	1
5185	8
5186	1
5187	5
5188	2
5189	1
5190	3
5191	0
5192	4
5193	3
5194	2
5195	2
5196	6
5197	1
5198	8
5199	4
5200	2
5201	4
5202	2
5203	1
5204	7
5205	0
5206	2
5207	2
5208	4
5209	2
5210	2
5211	2
5212	3
5213	4
5214	3
5215	1
5216	4
5217	1
5218	3
5219	1
5220	2
5221	1
5222	2
5223	0
5224	4
5225	5
5226	2
5227	3
5228	5
5229	1
5230	2
5231	3
5232	4
5233	2
5234	6
5235	8
5236	4
5237	4
5238	3
5239	4
5240	2
5241	1
5242	2
5243	0
5244	3
5245	3
5246	5
5247	2
5248	5
5249	4
5250	2
5251	1
5252	2
5253	0
5254	1
5255	4
5256	0
5257	3
5258	3
5259	5
5260	3
5261	7
5262	6
5263	2
5264	2
5265	5
5266	5
5267	3
5268	3
5269	1
5270	1
5271	4
5272	3
5273	1
5274	2
5275	4
5276	6
5277	3
5278	4
5279	1
5280	4
5281	6
5282	4
5283	1
5284	3
5285	2
5286	2
5287	1
5288	3
5289	1
5290	1
5291	1
5292	3
5293	2
5294	3
5295	1
5296	2
5297	4
5298	4
5299	1
5300	1
5301	2
5302	3
5303	1
5304	2
5305	5
5306	3
5307	2
5308	3
5309	4
5310	5
5311	1
5312	4
5313	5
5314	2
5315	4
5316	3
5317	1
5318	8
5319	3
5320	3
5321	1
5322	3
5323	1
5324	4
5325	1
5326	1
5327	4
5328	2
5329	2
5330	5
5331	1
5332	2
5333	1
5334	2
5335	3
5336	2
5337	2
5338	3
5339	5
5340	6
5341	2
5342	1
5343	3
5344	3
5345	2
5346	0
5347	2
5348	3
5349	3
5350	3
5351	2
5352	3
5353	4
5354	4
5355	4
5356	5
5357	5
5358	7
5359	6
5360	4
5361	1
5362	3
5363	0
5364	2
5365	3
5366	2
5367	2
5368	2
5369	1
5370	5
5371	3
5372	1
5373	3
5374	4
5375	7
5376	4
5377	1
5378	2
5379	2
5380	1
5381	5
5382	4
5383	2
5384	3
5385	0
5386	0
5387	2
5388	6
5389	4
5390	6
5391	2
5392	3
5393	4
5394	6
5395	3
5396	3
5397	0
5398	2
5399	3
5400	0
5401	0
5402	1
5403	2
5404	2
5405	2
5406	2
5407	1
5408	5
5409	3
5410	2
5411	2
5412	1
5413	5
5414	3
5415	3
5416	4
5417	6
5418	2
5419	1
5420	1
5421	5
5422	1
5423	1
5424	4
5425	0
5426	4
5427	4
5428	1
5429	5
5430	2
5431	2
5432	4
5433	1
5434	3
5435	2
5436	4
5437	1
5438	5
5439	5
5440	2
5441	2
5442	1
5443	3
5444	1
5445	1
5446	3
5447	0
5448	6
5449	2
5450	3
5451	2
5452	3
5453	1
5454	2
5455	3
5456	3
5457	1
5458	2
5459	1
5460	5
5461	1
5462	2
5463	0
5464	3
5465	1
5466	5
5467	1
5468	4
5469	5
5470	4
5471	4
5472	0
5473	3
5474	2
5475	3
5476	0
5477	2
5478	3
5479	2
5480	4
5481	5
5482	6
5483	4
5484	1
5485	4
5486	3
5487	1
5488	2
5489	2
5490	3
5491	2
5492	8
5493	2
5494	5
5495	4
5496	2
5497	5
5498	1
5499	4
5500	1
5501	4
5502	4
5503	2
5504	5
5505	3
5506	1
5507	4
5508	4
5509	2
5510	3
5511	1
5512	4
5513	4
5514	7
5515	1
5516	2
5517	3
5518	4
5519	2
5520	2
5521	1
5522	3
5523	3
5524	4
5525	0
5526	5
5527	1
5528	2
5529	1
5530	4
5531	2
5532	5
5533	2
5534	2
5535	2
5536	2
5537	2
5538	8
5539	1
5540	2
5541	2
5542	4
5543	1
5544	4
5545	0
5546	2
5547	2
5548	2
5549	1
5550	1
5551	2
5552	2
5553	5
5554	1
5555	4
5556	4
5557	2
5558	2
5559	6
5560	0
5561	6
5562	3
5563	4
5564	2
5565	1
5566	7
5567	3
5568	4
5569	3
5570	4
5571	2
5572	2
5573	3
5574	2
5575	0
5576	1
5577	3
5578	1
5579	4
5580	5
5581	3
5582	5
5583	2
5584	2
5585	3
5586	3
5587	0
5588	3
5589	3
5590	1
5591	4
5592	1
5593	5
5594	2
5595	1
5596	3
5597	2
5598	1
5599	3
5600	4
5601	1
5602	1
5603	5
5604	3
5605	0
5606	2
5607	2
5608	2
5609	3
5610	1
5611	2
5612	4
5613	3
5614	2
5615	2
5616	4
5617	3
5618	3
5619	2
5620	0
5621	6
5622	3
5623	3
5624	7
5625	4
5626	0
5627	3
5628	0
5629	3
5630	4
5631	3
5632	2
5633	2
5634	0
5635	2
5636	2
5637	4
5638	3
5639	2
5640	1
5641	1
5642	4
5643	3
5644	4
5645	1
5646	2
5647	4
5648	1
5649	4
5650	4
5651	3
5652	1
5653	3
5654	4
5655	1
5656	3
5657	1
5658	3
5659	3
5660	1
5661	1
5662	5
5663	0
5664	3
5665	5
5666	1
5667	3
5668	3
5669	1
5670	2
5671	2
5672	1
5673	4
5674	1
5675	3
5676	5
5677	2
5678	3
5679	1
5680	2
5681	5
5682	1
5683	4
5684	5
5685	2
5686	2
5687	1
5688	2
5689	3
5690	3
5691	2
5692	5
5693	2
5694	3
5695	3
5696	2
5697	1
5698	2
5699	4
5700	6
5701	4
5702	1
5703	1
5704	3
5705	0
5706	3
5707	1
5708	1
5709	2
5710	6
5711	4
5712	2
5713	1
5714	1
5715	5
5716	4
5717	2
5718	1
5719	0
5720	4
5721	2
5722	5
5723	3
5724	2
5725	3
5726	1
5727	5
5728	2
5729	2
5730	0
5731	2
5732	6
5733	3
5734	2
5735	3
5736	4
5737	3
5738	2
5739	4
5740	4
5741	4
5742	4
5743	1
5744	1
5745	7
5746	2
5747	4
5748	4
5749	2
5750	3
5751	0
5752	2
5753	8
5754	2
5755	3
5756	1
5757	2
5758	1
5759	1
5760	1
5761	1
5762	1
5763	2
5764	0
5765	2
5766	2
5767	3
5768	1
5769	4
5770	5
5771	2
5772	4
5773	4
5774	4
5775	2
5776	5
5777	2
5778	1
5779	5
5780	5
5781	6
5782	0
5783	4
5784	3
5785	2
5786	0
5787	3
5788	4
5789	4
5790	0
5791	3
5792	1
5793	4
5794	4
5795	2
5796	3
5797	2
5798	2
5799	3
5800	5
5801	5
5802	0
5803	0
5804	2
5805	4
5806	3
5807	1
5808	1
5809	3
5810	3
5811	5
5812	0
5813	2
5814	4
5815	4
5816	3
5817	2
5818	1
5819	3
5820	7
5821	4
5822	2
5823	2
5824	3
5825	1
5826	3
5827	5
5828	3
5829	2
5830	2
5831	0
5832	3
5833	4
5834	1
5835	3
5836	0
5837	1
5838	3
5839	2
5840	2
5841	5
5842	5
5843	4
5844	1
5845	1
5846	2
5847	1
5848	2
5849	2
5850	1
5851	3
5852	3
5853	2
5854	2
5855	1
5856	5
5857	1
5858	5
5859	3
5860	3
5861	5
5862	1
5863	1
5864	4
5865	5
5866	3
5867	3
5868	3
5869	4
5870	2
5871	2
5872	1
5873	3
5874	3
5875	3
5876	4
5877	3
5878	4
5879	0
5880	1
5881	2
5882	1
5883	0
5884	2
5885	2
5886	4
5887	2
5888	9
5889	3
5890	1
5891	2
5892	5
5893	0
5894	2
5895	4
5896	3
5897	4
5898	5
5899	5
5900	5
5901	4
5902	3
5903	2
5904	4
5905	3
5906	6
5907	4
5908	1
5909	6
5910	5
5911	5
5912	7
5913	5
5914	3
5915	3
5916	2
5917	1
5918	2
5919	3
5920	6
5921	3
5922	2
5923	4
5924	6
5925	1
5926	0
5927	3
5928	0
5929	3
5930	6
5931	1
5932	5
5933	2
5934	1
5935	2
5936	3
5937	2
5938	3
5939	0
5940	4
5941	2
5942	2
5943	3
5944	2
5945	1
5946	3
5947	8
5948	1
5949	3
5950	3
5951	2
5952	6
5953	3
5954	0
5955	2
5956	3
5957	3
5958	1
5959	3
5960	7
5961	3
5962	3
5963	2
5964	8
5965	1
5966	11
5967	4
5968	7
5969	1
5970	3
5971	5
5972	2
5973	1
5974	4
5975	6
5976	2
5977	1
5978	2
5979	4
5980	2
5981	7
5982	1
5983	3
5984	3
5985	10
5986	4
5987	1
5988	2
5989	2
5990	1
5991	0
5992	0
5993	2
5994	4
5995	4
5996	7
5997	2
5998	5
5999	0
6000	4
6001	4
6002	5
6003	1
6004	4
6005	2
6006	1
6007	4
6008	2
6009	6
6010	3
6011	3
6012	3
6013	2
6014	2
6015	1
6016	1
6017	3
6018	2
6019	3
6020	3
6021	3
6022	0
6023	6
6024	4
6025	1
6026	3
6027	2
6028	0
6029	2
6030	1
6031	2
6032	1
6033	5
6034	5
6035	1
6036	2
6037	3
6038	1
6039	1
6040	3
6041	3
6042	1
6043	4
6044	1
6045	1
6046	2
6047	4
6048	4
6049	3
6050	0
6051	0
6052	2
6053	2
6054	1
6055	3
6056	0
6057	2
6058	3
6059	0
6060	2
6061	2
6062	6
6063	3
6064	3
6065	2
6066	3
6067	2
6068	1
6069	2
6070	0
6071	3
6072	4
6073	1
6074	3
6075	0
6076	0
6077	2
6078	3
6079	3
6080	6
6081	1
6082	2
6083	4
6084	2
6085	0
6086	2
6087	3
6088	2
6089	1
6090	2
6091	3
6092	3
6093	4
6094	3
6095	0
6096	1
6097	0
6098	2
6099	0
6100	3
6101	1
6102	2
6103	3
6104	1
6105	0
6106	0
6107	3
6108	0
6109	2
6110	3
6111	0
6112	4
6113	0
6114	1
6115	1
6116	2
6117	2
6118	0
6119	5
6120	1
6121	1
6122	2
6123	3
6124	3
6125	4
6126	2
6127	2
6128	3
6129	3
6130	3
6131	1
6132	1
6133	3
6134	2
6135	1
6136	2
6137	2
6138	3
6139	5
6140	2
6141	2
6142	2
6143	1
6144	3
6145	1
6146	1
6147	2
6148	5
6149	2
6150	1
6151	3
6152	0
6153	2
6154	3
6155	2
6156	2
6157	2
6158	1
6159	3
6160	1
6161	1
6162	0
6163	2
6164	2
6165	1
6166	1
6167	3
6168	2
6169	4
6170	3
6171	2
6172	0
6173	1
6174	0
6175	0
6176	1
6177	3
6178	1
6179	2
6180	1
6181	2
6182	1
6183	0
6184	1
6185	1
6186	1
6187	2
6188	1
6189	1
6190	2
6191	1
6192	0
6193	0
6194	1
6195	1
6196	0
6197	1
6198	0
6199	0
6200	0
6201	2
6202	1
6203	2
6204	1
6205	2
6206	1
6207	3
6208	0
6209	0
6210	0
6211	0
6212	0
6213	1
6214	1
6215	1
6216	0
6217	1
6218	0
6219	0
6220	2
6221	0
6222	1
6223	1
6224	1
6225	1
6226	1
6227	2
6228	0
6229	1
6230	0
6231	2
6232	0
6233	2
6234	1
6235	0
6236	1
6237	1
6238	0
6239	2
6240	0
6241	2
6242	1
6243	0
6244	0
6245	1
6246	2
6247	0
6248	0
6249	0
6250	0
6251	1
6252	0
6253	0
6254	0
6255	1
6256	0
6257	1
6258	0
6259	0
6260	0
6261	0
6262	0
6263	0
6264	0
6265	0
6266	1
6267	0
6268	0
6269	2
6270	3
6271	0
6272	1
6273	0
6274	0
6275	0
6276	0
6277	0
6278	0
6279	0
6280	1
6281	0
6282	1
6283	0
6284	0
6285	0
6286	1
6287	2
6288	1
6289	0
6290	2
6291	0
6292	1
6293	0
6294	1
6295	0
6296	0
6297	1
6298	0
6299	1
6300	0
6301	1
6302	1
6303	1
6304	1
6305	1
6306	0
6307	0
6308	0
6309	0
6310	0
6311	1
6312	0
6313	0
6314	0
6315	0
6316	1
6317	0
6318	1
6319	0
6320	0
6321	1
6322	1
6323	1
6324	0
6325	0
6326	0
6327	0
6328	0
6329	0
6330	0
6331	0
6332	0
6333	2
6334	2
6335	0
6336	0
6337	2
6338	1
6339	0
6340	1
6341	0
6342	0
6343	1
6344	1
6345	0
6346	0
6347	1
6348	2
6349	0
6350	2
6351	2
6352	1
6353	0
6354	1
6355	0
6356	0
6357	1
6358	0
6359	0
6360	0
6361	0
6362	1
6363	0
6364	0
6365	0
6366	0
6367	0
6368	0
6369	2
6370	1
6371	0
6372	0
6373	0
6374	1
6375	1
6376	0
6377	2
6378	1
6379	1
6380	2
6381	0
6382	2
6383	0
6384	0
6385	0
6386	0
6387	0
6388	0
6389	0
6390	0
6391	0
6392	1
6393	0
6394	1
6395	1
6396	0
6397	0
6398	0
6399	0
6400	0
6401	1
6402	0
6403	0
6404	0
6405	0
6406	0
6407	0
6408	2
6409	0
6410	3
6411	2
6412	0
6413	1
6414	0
6415	0
6416	0
6417	1
6418	1
6419	1
6420	0
6421	2
6422	0
6423	1
6424	0
6425	0
6426	0
6427	0
6428	1
6429	0
6430	0
6431	0
6432	0
6433	1
6434	1
6435	0
6436	1
6437	0
6438	1
6439	0
6440	1
6441	0
6442	0
6443	0
6444	1
6445	1
6446	0
6447	0
6448	0
6449	1
6450	0
6451	1
6452	1
6453	0
6454	0
6455	0
6456	0
6457	0
6458	0
6459	0
6460	0
6461	0
6462	0
6463	0
6464	2
6465	1
6466	1
6467	0
6468	0
6469	0
6470	1
6471	0
6472	0
6473	0
6474	0
6475	0
6476	1
6477	0
6478	1
6479	0
6480	0
6481	1
6482	1
6483	0
6484	0
6485	0
6486	1
6487	0
6488	0
6489	1
6490	1
6491	0
6492	0
6493	1
6494	1
6495	0
6496	0
6497	0
6498	1
6499	1
6500	1
6501	0
6502	1
6503	1
6504	0
6505	1
6506	0
6507	0
6508	0
6509	1
6510	0
6511	0
6512	0
6513	0
6514	0
6515	0
6516	0
6517	0
6518	2
6519	0
6520	1
6521	0
6522	0
6523	0
6524	0
6525	0
6526	0
6527	1
6528	1
6529	0
6530	0
6531	0
6532	0
6533	0
6534	0
6535	0
6536	1
6537	1
6538	0
6539	0
6540	0
6541	0
6542	1
6543	1
6544	0
6545	0
6546	0
6547	0
6548	0
6549	1
6550	0
6551	2
6552	4
6553	7
6554	10
6555	20
6556	32
6557	62
6558	69
6559	96
6560	84
6561	72
6562	66
6563	46
6564	39
6565	12
6566	6
6567	3
6568	2
6569	1
6570	0
6571	0
6572	0
6573	0
6574	0
6575	0
6576	0
6577	0
6578	0
6579	0
6580	0
6581	0
6582	0
6583	0
6584	0
6585	0
6586	0
6587	0
6588	0
6589	0
6590	0
6591	0
6592	0
6593	0
6594	1
6595	1
6596	0
6597	0
6598	0
6599	0
6600	0
6601	0
6602	0
6603	0
6604	0
6605	0
6606	0
6607	0
6608	0
6609	0
6610	0
6611	0
6612	0
6613	0
6614	0
6615	0
6616	0
6617	0
6618	0
6619	0
6620	0
6621	0
6622	0
6623	0
6624	0
6625	1
6626	0
6627	0
6628	0
6629	0
6630	0
6631	0
6632	0
6633	0
6634	0
6635	0
6636	0
6637	0
6638	0
6639	0
6640	0
6641	0
6642	1
6643	0
6644	0
6645	0
6646	0
6647	0
6648	0
6649	0
6650	0
6651	0
6652	0
6653	0
6654	0
6655	0
6656	0
6657	0
6658	0
6659	0
6660	0
6661	0
6662	0
6663	0
6664	0
6665	0
6666	0
6667	0
6668	0
6669	0
6670	0
6671	0
6672	0
6673	0
6674	0
6675	0
6676	0
6677	0
6678	0
6679	0
6680	0
6681	0
6682	0
6683	0
6684	0
6685	0
6686	1
6687	0
6688	0
6689	0
6690	0
6691	0
6692	0
6693	0
6694	0
6695	0
6696	0
6697	0
6698	0
6699	0
6700	0
6701	0
6702	0
6703	0
6704	0
6705	0
6706	0
6707	0
6708	0
6709	0
6710	0
6711	0
6712	0
6713	0
6714	0
6715	0
6716	0
6717	0
6718	0
6719	1
6720	0
6721	0
6722	0
6723	0
6724	0
6725	0
6726	0
6727	0
6728	0
6729	0
6730	0
6731	0
6732	0
6733	0
6734	0
6735	0
6736	0
6737	0
6738	0
6739	0
6740	1
6741	0
6742	0
6743	0
6744	0
6745	0
6746	0
6747	0
6748	0
6749	0
6750	0
6751	0
6752	0
6753	0
6754	0
6755	0
6756	0
6757	1
6758	0
6759	0
6760	0
6761	0
6762	0
6763	0
6764	0
6765	0
6766	0
6767	0
6768	0
6769	0
6770	0
6771	0
6772	0
6773	0
6774	0
6775	0
6776	0
6777	0
6778	0
6779	0
6780	0
6781	0
6782	0
6783	0
6784	0
6785	0
6786	0
6787	0
6788	0
6789	0
6790	0
6791	0
6792	0
6793	0
6794	0
6795	0
6796	0
6797	0
6798	0
6799	0
6800	0
6801	0
6802	0
6803	0
6804	0
6805	0
6806	1
6807	0
6808	0
6809	0
6810	0
6811	0
6812	0
6813	0
6814	0
6815	0
6816	0
6817	0
6818	0
6819	1
6820	0
6821	0
6822	0
6823	0
6824	0
6825	0
6826	0
6827	0
6828	0
6829	0
6830	0
6831	0
6832	0
6833	0
6834	0
6835	0
6836	0
6837	0
6838	0
6839	0
6840	0
6841	0
6842	4
6843	1
6844	2
6845	1
6846	0
6847	0
6848	0
6849	0
6850	0
6851	0
6852	0
6853	0
6854	0
6855	0
6856	0
6857	0
6858	0
6859	0
6860	0
6861	0
6862	0
6863	0
6864	0
6865	0
6866	0
6867	0
6868	0
6869	0
6870	0
6871	0
6872	0
6873	1
6874	0
6875	0
6876	0
6877	0
6878	0
6879	0
6880	0
6881	0
6882	0
6883	0
6884	0
6885	0
6886	0
6887	0
6888	0
6889	0
6890	0
6891	0
6892	0
6893	0
6894	0
6895	0
6896	0
6897	0
6898	0
6899	0
6900	0
6901	1
6902	0
6903	0
6904	0
6905	0
6906	0
6907	0
6908	0
6909	0
6910	0
6911	0
6912	0
6913	0
6914	0
6915	0
6916	0
6917	0
6918	0
6919	0
6920	0
6921	0
6922	0
6923	0
6924	0
6925	0
6926	1
6927	0
6928	0
6929	0
6930	0
6931	0
6932	0
6933	0
6934	0
6935	0
6936	0
6937	0
6938	0
6939	0
6940	0
6941	0
6942	0
6943	0
6944	0
6945	0
6946	0
6947	0
6948	0
6949	0
6950	0
6951	0
6952	0
6953	0
6954	0
6955	0
6956	0
6957	0
6958	0
6959	0
6960	0
6961	2
6962	0
6963	0
6964	0
6965	0
6966	0
6967	0
6968	0
6969	1
6970	0
6971	1
6972	0
6973	0
6974	1
6975	0
6976	0
6977	0
6978	0
6979	0
6980	0
6981	0
6982	0
6983	0
6984	1
6985	0
6986	0
6987	0
6988	0
6989	0
6990	0
6991	0
6992	0
6993	0
6994	0
6995	0
6996	0
6997	0
6998	0
6999	0
7000	0
7001	0
7002	0
7003	0
7004	0
7005	0
7006	0
7007	0
7008	0
7009	0
7010	0
7011	0
7012	0
7013	1
7014	0
7015	0
7016	0
7017	0
7018	0
7019	0
7020	0
7021	0
7022	0
7023	0
7024	0
7025	1
7026	0
7027	0
7028	0
7029	0
7030	0
7031	0
7032	0
7033	0
7034	0
7035	0
7036	0
7037	0
7038	0
7039	0
7040	0
7041	0
7042	0
7043	0
7044	0
7045	0
7046	0
7047	0
7048	0
7049	0
7050	0
7051	0
7052	0
7053	0
7054	0
7055	0
7056	0
7057	0
7058	0
7059	0
7060	0
7061	0
7062	0
7063	0
7064	0
7065	0
7066	0
7067	0
7068	0
7069	0
7070	0
7071	0
7072	0
7073	0
7074	0
7075	0
7076	0
7077	0
7078	0
7079	0
7080	0
7081	0
7082	0
7083	0
7084	0
7085	0
7086	0
7087	1
7088	0
7089	0
7090	0
7091	0
7092	0
7093	0
7094	0
7095	0
7096	0
7097	0
7098	0
7099	0
7100	0
7101	0
7102	0
7103	0
7104	0
7105	0
7106	0
7107	0
7108	0
7109	0
7110	0
7111	0
7112	0
7113	0
7114	0
7115	0
7116	0
7117	0
7118	0
7119	0
7120	0
7121	0
7122	0
7123	0
7124	0
7125	0
7126	0
7127	0
7128	0
7129	0
7130	0
7131	0
7132	0
7133	0
7134	0
7135	0
7136	0
7137	0
7138	0
7139	0
7140	0
7141	0
7142	0
7143	0
7144	0
7145	0
7146	0
7147	0
7148	0
7149	0
7150	0
7151	0
7152	0
7153	0
7154	0
7155	0
7156	0
7157	0
7158	1
7159	0
7160	0
7161	0
7162	0
7163	0
7164	0
7165	0
7166	0
7167	0
7168	0
7169	0
7170	0
7171	0
7172	0
7173	0
7174	0
7175	0
7176	0
7177	0
7178	0
7179	0
7180	0
7181	0
7182	0
7183	0
7184	0
7185	0
7186	0
7187	0
7188	0
7189	0
7190	0
7191	0
7192	0
7193	0
7194	0
7195	0
7196	0
7197	0
7198	0
7199	0
7200	0
7201	0
7202	0
7203	0
7204	0
7205	0
7206	0
7207	0
7208	0
7209	0
7210	0
7211	0
7212	0
7213	0
7214	0
7215	0
7216	0
7217	0
7218	0
7219	0
7220	0
7221	0
7222	0
7223	0
7224	0
7225	0
7226	0
7227	0
7228	0
7229	0
7230	0
7231	0
7232	0
7233	0
7234	0
7235	0
7236	0
7237	0
7238	0
7239	0
7240	0
7241	0
7242	0
7243	0
7244	0
7245	0
7246	0
7247	0
7248	0
7249	0
7250	0
7251	0
7252	0
7253	0
7254	0
7255	0
7256	0
7257	0
7258	0
7259	0
7260	0
7261	0
7262	0
7263	0
7264	0
7265	0
7266	1
7267	0
7268	0
7269	0
7270	0
7271	0
7272	0
7273	0
7274	0
7275	0
7276	0
7277	0
7278	0
7279	0
7280	0
7281	0
7282	0
7283	0
7284	0
7285	0
7286	0
7287	0
7288	0
7289	0
7290	0
7291	0
7292	0
7293	0
7294	0
7295	0
7296	0
7297	0
7298	0
7299	0
7300	0
7301	0
7302	0
7303	0
7304	0
7305	0
7306	0
7307	0
7308	0
7309	0
7310	0
7311	0
7312	0
7313	0
7314	0
7315	0
7316	0
7317	0
7318	0
7319	0
7320	0
7321	0
7322	0
7323	0
7324	0
7325	0
7326	0
7327	0
7328	0
7329	0
7330	0
7331	0
7332	0
7333	0
7334	0
7335	0
7336	0
7337	0
7338	0
7339	0
7340	0
7341	0
7342	0
7343	0
7344	0
7345	0
7346	0
7347	0
7348	0
7349	0
7350	0
7351	0
7352	0
7353	0
7354	0
7355	0
7356	0
7357	0
7358	0
7359	0
7360	0
7361	0
7362	0
7363	0
7364	0
7365	0
7366	0
7367	0
7368	0
7369	0
7370	0
7371	0
7372	0
7373	0
7374	0
7375	0
7376	0
7377	0
7378	0
7379	0
7380	0
7381	0
7382	0
7383	0
7384	0
7385	0
7386	0
7387	0
7388	0
7389	0
7390	0
7391	0
7392	0
7393	0
7394	0
7395	0
7396	0
7397	0
7398	0
7399	0
7400	1
7401	0
7402	0
7403	0
7404	0
7405	0
7406	0
7407	0
7408	0
7409	0
7410	0
7411	0
7412	0
7413	0
7414	0
7415	0
7416	0
7417	0
7418	0
7419	0
7420	0
7421	0
7422	0
7423	0
7424	0
7425	0
7426	0
7427	0
7428	0
7429	0
7430	0
7431	0
7432	0
7433	0
7434	0
7435	0
7436	0
7437	0
7438	0
7439	0
7440	0
7441	0
7442	0
7443	0
7444	0
7445	0
7446	0
7447	0
7448	0
7449	0
7450	0
7451	0
7452	0
7453	0
7454	0
7455	0
7456	0
7457	0
7458	0
7459	1
7460	0
7461	0
7462	0
7463	1
7464	0
7465	0
7466	0
7467	0
7468	0
7469	1
7470	0
7471	0
7472	0
7473	0
7474	0
7475	0
7476	0
7477	0
7478	0
7479	0
7480	0
7481	0
7482	0
7483	0
7484	0
7485	0
7486	0
7487	0
7488	2
7489	0
7490	0
7491	0
7492	1
7493	0
7494	0
7495	0
7496	0
7497	0
7498	0
7499	0
7500	0
7501	0
7502	0
7503	0
7504	0
7505	0
7506	0
7507	0
7508	0
7509	0
7510	0
7511	0
7512	0
7513	0
7514	0
7515	0
7516	0
7517	0
7518	0
7519	0
7520	0
7521	0
7522	0
7523	0
7524	0
7525	0
7526	0
7527	0
7528	0
7529	0
7530	0
7531	1
7532	0
7533	0
7534	0
7535	0
7536	0
7537	0
7538	0
7539	0
7540	0
7541	0
7542	0
7543	0
7544	0
7545	0
7546	0
7547	0
7548	0
7549	0
7550	0
7551	0
7552	0
7553	0
7554	0
7555	0
7556	0
7557	0
7558	0
7559	1
7560	0
7561	0
7562	0
7563	1
7564	0
7565	0
7566	0
7567	0
7568	0
7569	0
7570	0
7571	0
7572	0
7573	0
7574	0
7575	0
7576	0
7577	0
7578	0
7579	0
7580	0
7581	0
7582	1
7583	0
7584	0
7585	0
7586	0
7587	0
7588	0
7589	0
7590	0
7591	0
7592	0
7593	0
7594	0
7595	0
7596	0
7597	0
7598	0
7599	0
7600	0
7601	1
7602	0
7603	0
7604	0
7605	0
7606	0
7607	0
7608	0
7609	0
7610	0
7611	0
7612	0
7613	0
7614	0
7615	0
7616	0
7617	0
7618	0
7619	0
7620	0
7621	0
7622	0
7623	0
7624	0
7625	0
7626	0
7627	0
7628	0
7629	0
7630	0
7631	0
7632	0
7633	0
7634	0
7635	0
7636	0
7637	0
7638	0
7639	0
7640	0
7641	0
7642	0
7643	1
7644	0
7645	0
7646	0
7647	0
7648	0
7649	0
7650	0
7651	0
7652	0
7653	0
7654	0
7655	0
7656	0
7657	0
7658	0
7659	0
7660	0
7661	0
7662	0
7663	0
7664	0
7665	0
7666	0
7667	0
7668	0
7669	0
7670	0
7671	0
7672	0
7673	0
7674	0
7675	0
7676	0
7677	0
7678	0
7679	0
7680	0
7681	0
7682	0
7683	0
7684	0
7685	0
7686	0
7687	1
7688	0
7689	0
7690	0
7691	0
7692	0
7693	0
7694	0
7695	0
7696	0
7697	0
7698	0
7699	0
7700	0
7701	0
7702	0
7703	0
7704	1
7705	0
7706	0
7707	0
7708	0
7709	0
7710	0
7711	0
7712	0
7713	0
7714	1
7715	0
7716	0
7717	0
7718	0
7719	0
7720	0
7721	0
7722	0
7723	0
7724	0
7725	0
7726	0
7727	0
7728	0
7729	0
7730	0
7731	0
7732	0
7733	0
7734	0
7735	0
7736	0
7737	0
7738	0
7739	0
7740	0
7741	0
7742	0
7743	0
7744	0
7745	0
7746	0
7747	0
7748	0
7749	0
7750	0
7751	0
7752	0
7753	0
7754	0
7755	0
7756	0
7757	0
7758	0
7759	0
7760	0
7761	0
7762	0
7763	0
7764	0
7765	0
7766	0
7767	0
7768	0
7769	0
7770	0
7771	0
7772	0
7773	0
7774	0
7775	0
7776	0
7777	0
7778	0
7779	0
7780	0
7781	0
7782	0
7783	0
7784	0
7785	0
7786	0
7787	0
7788	0
7789	0
7790	0
7791	0
7792	0
7793	0
7794	0
7795	0
7796	0
7797	0
7798	0
7799	0
7800	0
7801	0
7802	0
7803	0
7804	0
7805	0
7806	0
7807	0
7808	0
7809	0
7810	0
7811	0
7812	0
7813	0
7814	0
7815	0
7816	0
7817	0
7818	0
7819	0
7820	0
7821	0
7822	0
7823	0
7824	0
7825	0
7826	0
7827	0
7828	0
7829	0
7830	0
7831	0
7832	0
7833	1
7834	0
7835	0
7836	0
7837	0
7838	0
7839	0
7840	0
7841	0
7842	0
7843	0
7844	0
7845	0
7846	0
7847	0
7848	0
7849	0
7850	0
7851	0
7852	0
7853	0
7854	0
7855	0
7856	0
7857	0
7858	0
7859	0
7860	0
7861	0
7862	0
7863	0
7864	0
7865	0
7866	0
7867	0
7868	0
7869	0
7870	0
7871	0
7872	0
7873	0
7874	0
7875	0
7876	0
7877	0
7878	0
7879	0
7880	0
7881	0
7882	0
7883	0
7884	0
7885	0
7886	0
7887	0
7888	0
7889	0
7890	0
7891	0
7892	0
7893	0
7894	0
7895	0
7896	0
7897	1
7898	0
7899	0
7900	0
7901	0
7902	0
7903	0
7904	0
7905	0
7906	0
7907	0
7908	0
7909	0
7910	0
7911	0
7912	0
7913	0
7914	0
7915	0
7916	0
7917	0
7918	0
7919	0
7920	0
7921	0
7922	0
7923	0
7924	0
7925	0
7926	0
7927	0
7928	0
7929	0
7930	0
7931	0
7932	0
7933	0
7934	0
7935	0
7936	0
7937	0
7938	0
7939	0
7940	1
7941	0
7942	0
7943	0
7944	0
7945	0
7946	0
7947	0
7948	0
7949	0
7950	0
7951	0
7952	0
7953	0
7954	0
7955	0
7956	0
7957	0
7958	0
7959	0
7960	1
7961	0
7962	0
7963	0
7964	0
7965	0
7966	0
7967	0
7968	0
7969	0
7970	0
7971	0
7972	0
7973	0
7974	0
7975	0
7976	0
7977	0
7978	0
7979	0
7980	0
7981	0
7982	0
7983	0
7984	1
7985	0
7986	0
7987	0
7988	0
7989	0
7990	0
7991	0
7992	0
7993	0
7994	0
7995	0
7996	0
7997	0
7998	0
7999	0
8000	0
8001	0
8002	0
8003	0
8004	0
8005	0
8006	0
8007	0
8008	0
8009	0
8010	0
8011	0
8012	0
8013	0
8014	0
8015	0
8016	0
8017	0
8018	0
8019	0
8020	0
8021	0
8022	0
8023	0
8024	0
8025	0
8026	0
8027	0
8028	0
8029	0
8030	0
8031	0
8032	0
8033	0
8034	0
8035	0
8036	0
8037	0
8038	0
8039	0
8040	0
8041	0
8042	0
8043	0
8044	0
8045	0
8046	0
8047	0
8048	0
8049	0
8050	0
8051	0
8052	0
8053	0
8054	0
8055	0
8056	0
8057	0
8058	0
8059	0
8060	0
8061	0
8062	0
8063	0
8064	0
8065	0
8066	0
8067	0
8068	0
8069	0
8070	0
8071	0
8072	0
8073	0
8074	0
8075	0
8076	0
8077	0
8078	0
8079	0
8080	0
8081	0
8082	0
8083	0
8084	0
8085	0
8086	0
8087	0
8088	0
8089	0
8090	0
8091	0
8092	0
8093	0
8094	0
8095	0
8096	0
8097	0
8098	0
8099	0
8100	0
8101	0
8102	0
8103	0
8104	0
8105	0
8106	0
8107	0
8108	0
8109	0
8110	0
8111	0
8112	0
8113	0
8114	0
8115	0
8116	0
8117	0
8118	0
8119	0
8120	0
8121	0
8122	0
8123	0
8124	0
8125	0
8126	0
8127	0
8128	0
8129	0
8130	0
8131	0
8132	0
8133	0
8134	0
8135	0
8136	0
8137	0
8138	0
8139	0
8140	0
8141	0
8142	0
8143	0
8144	0
8145	0
8146	0
8147	0
8148	0
8149	0
8150	0
8151	0
8152	0
8153	0
8154	0
8155	0
8156	0
8157	0
8158	0
8159	0
8160	0
8161	0
8162	0
8163	0
8164	0
8165	0
8166	0
8167	0
8168	0
8169	0
8170	0
8171	0
8172	0
8173	0
8174	0
8175	0
8176	0
8177	0
8178	0
8179	0
8180	0
8181	0
8182	0
8183	0
8184	0
8185	0
8186	0
8187	0
8188	0
8189	0
8190	0
8191	0
