0	0
1	0
2	0
3	0
4	0
5	0
6	0
7	0
8	0
9	0
10	0
11	0
12	0
13	0
14	0
15	0
16	0
17	0
18	0
19	0
20	0
21	0
22	0
23	0
24	0
25	0
26	0
27	0
28	0
29	0
30	0
31	0
32	0
33	0
34	0
35	0
36	0
37	0
38	0
39	0
40	0
41	0
42	0
43	0
44	0
45	0
46	0
47	0
48	0
49	0
50	0
51	0
52	0
53	0
54	0
55	0
56	0
57	0
58	0
59	0
60	0
61	0
62	0
63	0
64	0
65	0
66	0
67	0
68	0
69	0
70	0
71	0
72	0
73	0
74	0
75	0
76	0
77	0
78	0
79	0
80	0
81	0
82	0
83	0
84	0
85	0
86	0
87	0
88	0
89	0
90	0
91	0
92	0
93	0
94	0
95	0
96	0
97	0
98	0
99	0
100	0
101	0
102	0
103	0
104	0
105	0
106	0
107	0
108	0
109	0
110	0
111	0
112	0
113	0
114	0
115	0
116	0
117	0
118	72
119	311
120	497
121	611
122	614
123	573
124	652
125	637
126	544
127	658
128	638
129	616
130	611
131	586
132	595
133	573
134	595
135	525
136	617
137	577
138	560
139	598
140	579
141	641
142	586
143	531
144	580
145	536
146	532
147	519
148	561
149	556
150	577
151	526
152	589
153	522
154	567
155	520
156	551
157	579
158	549
159	539
160	567
161	528
162	535
163	541
164	554
165	541
166	529
167	478
168	511
169	524
170	490
171	531
172	519
173	507
174	501
175	487
176	505
177	548
178	527
179	497
180	530
181	482
182	513
183	506
184	515
185	533
186	515
187	480
188	477
189	507
190	517
191	497
192	495
193	514
194	515
195	519
196	480
197	475
198	474
199	502
200	468
201	483
202	486
203	479
204	470
205	497
206	500
207	455
208	472
209	484
210	478
211	488
212	471
213	494
214	492
215	494
216	464
217	518
218	502
219	484
220	480
221	445
222	521
223	462
224	486
225	493
226	446
227	506
228	484
229	497
230	484
231	427
232	512
233	445
234	454
235	480
236	493
237	499
238	452
239	478
240	493
241	468
242	488
243	478
244	455
245	496
246	466
247	489
248	462
249	445
250	498
251	465
252	483
253	491
254	478
255	484
256	474
257	484
258	523
259	485
260	475
261	464
262	454
263	484
264	478
265	471
266	472
267	506
268	474
269	466
270	489
271	449
272	450
273	444
274	434
275	485
276	438
277	502
278	464
279	434
280	494
281	477
282	462
283	466
284	438
285	497
286	490
287	500
288	529
289	524
290	519
291	495
292	498
293	489
294	463
295	466
296	479
297	485
298	490
299	504
300	462
301	465
302	442
303	468
304	500
305	477
306	467
307	503
308	506
309	483
310	474
311	515
312	441
313	458
314	469
315	454
316	444
317	453
318	451
319	453
320	500
321	484
322	451
323	460
324	458
325	485
326	475
327	464
328	491
329	485
330	499
331	455
332	474
333	501
334	448
335	438
336	461
337	469
338	449
339	499
340	487
341	506
342	504
343	510
344	449
345	457
346	510
347	471
348	482
349	438
350	494
351	483
352	493
353	469
354	495
355	472
356	495
357	501
358	490
359	504
360	472
361	503
362	467
363	478
364	475
365	445
366	499
367	509
368	492
369	472
370	507
371	534
372	479
373	454
374	481
375	490
376	483
377	526
378	515
379	522
380	547
381	673
382	780
383	946
384	1019
385	959
386	804
387	658
388	515
389	496
390	457
391	476
392	503
393	531
394	504
395	500
396	516
397	469
398	508
399	522
400	503
401	496
402	475
403	500
404	501
405	467
406	498
407	516
408	458
409	505
410	506
411	496
412	488
413	470
414	441
415	531
416	505
417	493
418	518
419	491
420	530
421	557
422	522
423	542
424	525
425	493
426	470
427	497
428	486
429	481
430	452
431	473
432	499
433	533
434	516
435	465
436	505
437	486
438	474
439	484
440	488
441	493
442	491
443	513
444	449
445	454
446	496
447	512
448	468
449	468
450	469
451	476
452	475
453	483
454	478
455	499
456	494
457	487
458	479
459	515
460	506
461	481
462	495
463	471
464	426
465	452
466	525
467	491
468	512
469	482
470	488
471	433
472	466
473	454
474	506
475	538
476	491
477	471
478	452
479	485
480	498
481	451
482	499
483	511
484	494
485	478
486	492
487	513
488	482
489	461
490	523
491	481
492	512
493	493
494	464
495	511
496	471
497	519
498	513
499	486
500	518
501	548
502	521
503	520
504	515
505	508
506	528
507	515
508	501
509	488
510	522
511	542
512	538
513	553
514	513
515	586
516	512
517	531
518	559
519	577
520	548
521	523
522	519
523	523
524	555
525	574
526	511
527	487
528	530
529	566
530	548
531	535
532	570
533	544
534	552
535	552
536	552
537	535
538	545
539	574
540	550
541	557
542	600
543	603
544	596
545	610
546	654
547	626
548	624
549	623
550	635
551	650
552	588
553	615
554	667
555	603
556	595
557	614
558	641
559	642
560	659
561	648
562	650
563	656
564	644
565	616
566	597
567	632
568	604
569	640
570	580
571	615
572	640
573	599
574	647
575	636
576	582
577	611
578	606
579	612
580	591
581	603
582	549
583	550
584	601
585	625
586	548
587	532
588	605
589	581
590	586
591	556
592	572
593	602
594	563
595	597
596	616
597	585
598	570
599	586
600	564
601	541
602	571
603	576
604	611
605	591
606	571
607	561
608	538
609	608
610	556
611	573
612	566
613	563
614	622
615	591
616	603
617	599
618	611
619	646
620	639
621	656
622	561
623	606
624	656
625	612
626	621
627	581
628	642
629	643
630	638
631	595
632	581
633	618
634	608
635	609
636	593
637	587
638	603
639	649
640	640
641	560
642	629
643	594
644	609
645	614
646	599
647	604
648	641
649	602
650	595
651	598
652	524
653	576
654	546
655	549
656	565
657	583
658	570
659	615
660	525
661	544
662	575
663	579
664	579
665	534
666	557
667	574
668	528
669	542
670	602
671	504
672	582
673	553
674	550
675	522
676	517
677	557
678	527
679	511
680	516
681	512
682	541
683	528
684	510
685	498
686	492
687	517
688	536
689	518
690	508
691	536
692	500
693	530
694	511
695	537
696	542
697	524
698	537
699	562
700	562
701	534
702	469
703	529
704	494
705	538
706	522
707	504
708	495
709	498
710	517
711	467
712	492
713	458
714	498
715	473
716	504
717	491
718	504
719	477
720	504
721	493
722	522
723	510
724	514
725	469
726	502
727	488
728	475
729	520
730	532
731	490
732	469
733	462
734	496
735	472
736	513
737	482
738	488
739	460
740	500
741	497
742	482
743	461
744	500
745	523
746	527
747	503
748	499
749	467
750	490
751	502
752	462
753	499
754	490
755	500
756	517
757	501
758	530
759	505
760	460
761	476
762	517
763	493
764	491
765	480
766	497
767	480
768	497
769	466
770	494
771	487
772	510
773	489
774	493
775	462
776	466
777	522
778	485
779	525
780	465
781	477
782	432
783	467
784	499
785	488
786	505
787	483
788	474
789	466
790	482
791	479
792	508
793	468
794	462
795	461
796	491
797	477
798	483
799	482
800	470
801	457
802	474
803	474
804	445
805	445
806	515
807	454
808	484
809	483
810	458
811	452
812	501
813	455
814	463
815	488
816	455
817	482
818	486
819	492
820	502
821	469
822	464
823	476
824	424
825	462
826	479
827	509
828	470
829	465
830	483
831	474
832	452
833	460
834	499
835	482
836	460
837	502
838	458
839	448
840	446
841	447
842	484
843	466
844	462
845	475
846	486
847	482
848	501
849	442
850	483
851	492
852	471
853	470
854	473
855	482
856	494
857	458
858	473
859	512
860	476
861	442
862	461
863	446
864	457
865	434
866	471
867	462
868	489
869	438
870	482
871	484
872	491
873	464
874	521
875	471
876	445
877	450
878	454
879	472
880	449
881	488
882	455
883	470
884	475
885	445
886	484
887	463
888	499
889	453
890	469
891	522
892	487
893	462
894	468
895	520
896	508
897	451
898	448
899	483
900	467
901	462
902	502
903	464
904	434
905	476
906	439
907	465
908	474
909	482
910	458
911	442
912	455
913	462
914	480
915	448
916	474
917	470
918	444
919	477
920	483
921	512
922	466
923	461
924	436
925	464
926	455
927	467
928	496
929	478
930	460
931	509
932	497
933	478
934	468
935	481
936	457
937	469
938	486
939	432
940	469
941	461
942	470
943	495
944	383
945	473
946	455
947	467
948	470
949	451
950	487
951	429
952	436
953	439
954	444
955	476
956	418
957	443
958	439
959	405
960	429
961	467
962	421
963	426
964	420
965	457
966	414
967	430
968	422
969	447
970	482
971	463
972	409
973	441
974	426
975	402
976	424
977	451
978	428
979	458
980	388
981	391
982	438
983	420
984	408
985	407
986	440
987	408
988	447
989	396
990	439
991	394
992	412
993	434
994	438
995	424
996	410
997	428
998	411
999	418
1000	411
1001	412
1002	396
1003	415
1004	421
1005	431
1006	431
1007	439
1008	428
1009	423
1010	444
1011	411
1012	403
1013	397
1014	435
1015	400
1016	424
1017	426
1018	371
1019	430
1020	420
1021	394
1022	398
1023	421
1024	397
1025	376
1026	416
1027	415
1028	454
1029	416
1030	423
1031	415
1032	428
1033	407
1034	418
1035	416
1036	414
1037	434
1038	384
1039	385
1040	408
1041	397
1042	403
1043	411
1044	431
1045	436
1046	410
1047	381
1048	447
1049	425
1050	449
1051	405
1052	411
1053	393
1054	399
1055	416
1056	406
1057	433
1058	445
1059	431
1060	385
1061	408
1062	423
1063	454
1064	415
1065	432
1066	404
1067	375
1068	415
1069	420
1070	413
1071	435
1072	425
1073	387
1074	385
1075	380
1076	423
1077	394
1078	442
1079	394
1080	431
1081	416
1082	407
1083	380
1084	431
1085	424
1086	406
1087	409
1088	401
1089	402
1090	369
1091	395
1092	447
1093	418
1094	400
1095	409
1096	400
1097	417
1098	439
1099	399
1100	405
1101	424
1102	396
1103	416
1104	436
1105	404
1106	434
1107	425
1108	391
1109	391
1110	374
1111	401
1112	353
1113	403
1114	418
1115	400
1116	401
1117	420
1118	394
1119	384
1120	393
1121	401
1122	404
1123	451
1124	431
1125	413
1126	425
1127	408
1128	462
1129	434
1130	389
1131	383
1132	424
1133	412
1134	409
1135	390
1136	399
1137	424
1138	428
1139	408
1140	396
1141	416
1142	411
1143	404
1144	445
1145	418
1146	414
1147	439
1148	445
1149	421
1150	393
1151	399
1152	414
1153	424
1154	434
1155	428
1156	406
1157	426
1158	380
1159	458
1160	470
1161	434
1162	407
1163	435
1164	424
1165	438
1166	437
1167	404
1168	414
1169	437
1170	435
1171	437
1172	410
1173	444
1174	454
1175	399
1176	431
1177	448
1178	430
1179	448
1180	391
1181	416
1182	449
1183	408
1184	428
1185	374
1186	435
1187	446
1188	511
1189	442
1190	445
1191	452
1192	461
1193	451
1194	443
1195	460
1196	431
1197	420
1198	455
1199	444
1200	443
1201	411
1202	471
1203	468
1204	458
1205	467
1206	482
1207	498
1208	467
1209	459
1210	414
1211	471
1212	451
1213	447
1214	448
1215	453
1216	443
1217	454
1218	462
1219	473
1220	452
1221	479
1222	459
1223	471
1224	485
1225	453
1226	499
1227	451
1228	450
1229	427
1230	503
1231	429
1232	526
1233	444
1234	479
1235	489
1236	454
1237	455
1238	445
1239	468
1240	478
1241	515
1242	493
1243	471
1244	511
1245	495
1246	486
1247	427
1248	451
1249	475
1250	407
1251	529
1252	477
1253	495
1254	496
1255	465
1256	501
1257	483
1258	471
1259	527
1260	532
1261	483
1262	494
1263	468
1264	468
1265	515
1266	478
1267	498
1268	492
1269	487
1270	450
1271	478
1272	522
1273	506
1274	473
1275	491
1276	570
1277	522
1278	488
1279	462
1280	503
1281	503
1282	518
1283	463
1284	458
1285	509
1286	493
1287	505
1288	513
1289	496
1290	453
1291	508
1292	498
1293	521
1294	489
1295	480
1296	490
1297	465
1298	482
1299	504
1300	432
1301	482
1302	455
1303	422
1304	466
1305	422
1306	378
1307	417
1308	404
1309	428
1310	401
1311	408
1312	344
1313	374
1314	408
1315	340
1316	345
1317	329
1318	352
1319	352
1320	401
1321	361
1322	371
1323	341
1324	337
1325	400
1326	353
1327	340
1328	343
1329	347
1330	353
1331	338
1332	348
1333	348
1334	335
1335	349
1336	346
1337	340
1338	305
1339	337
1340	333
1341	321
1342	329
1343	342
1344	326
1345	323
1346	334
1347	330
1348	340
1349	289
1350	287
1351	327
1352	355
1353	314
1354	335
1355	337
1356	333
1357	311
1358	324
1359	322
1360	351
1361	286
1362	333
1363	305
1364	310
1365	291
1366	314
1367	303
1368	311
1369	291
1370	312
1371	277
1372	327
1373	309
1374	280
1375	303
1376	310
1377	299
1378	327
1379	333
1380	352
1381	372
1382	412
1383	520
1384	689
1385	1022
1386	1433
1387	2088
1388	2666
1389	3274
1390	3638
1391	3842
1392	3674
1393	3124
1394	2523
1395	1822
1396	1378
1397	848
1398	616
1399	429
1400	377
1401	367
1402	314
1403	289
1404	316
1405	251
1406	286
1407	281
1408	237
1409	279
1410	252
1411	271
1412	277
1413	262
1414	244
1415	271
1416	282
1417	247
1418	224
1419	272
1420	220
1421	246
1422	260
1423	270
1424	246
1425	213
1426	205
1427	226
1428	277
1429	230
1430	252
1431	223
1432	236
1433	234
1434	211
1435	212
1436	248
1437	242
1438	234
1439	230
1440	239
1441	230
1442	241
1443	231
1444	239
1445	258
1446	248
1447	268
1448	248
1449	254
1450	238
1451	244
1452	250
1453	211
1454	216
1455	223
1456	209
1457	218
1458	201
1459	237
1460	205
1461	210
1462	233
1463	223
1464	239
1465	197
1466	210
1467	213
1468	216
1469	187
1470	228
1471	231
1472	229
1473	249
1474	232
1475	208
1476	207
1477	218
1478	211
1479	229
1480	228
1481	207
1482	229
1483	205
1484	247
1485	215
1486	199
1487	211
1488	207
1489	233
1490	216
1491	194
1492	215
1493	213
1494	201
1495	208
1496	190
1497	190
1498	209
1499	219
1500	212
1501	213
1502	206
1503	231
1504	201
1505	204
1506	221
1507	199
1508	192
1509	186
1510	188
1511	191
1512	213
1513	182
1514	216
1515	202
1516	206
1517	195
1518	193
1519	203
1520	224
1521	198
1522	221
1523	179
1524	220
1525	193
1526	189
1527	220
1528	164
1529	197
1530	222
1531	196
1532	204
1533	192
1534	192
1535	176
1536	197
1537	207
1538	202
1539	171
1540	192
1541	168
1542	195
1543	177
1544	181
1545	195
1546	189
1547	188
1548	190
1549	187
1550	187
1551	196
1552	176
1553	183
1554	176
1555	215
1556	209
1557	215
1558	174
1559	201
1560	198
1561	185
1562	208
1563	205
1564	182
1565	166
1566	197
1567	186
1568	186
1569	172
1570	167
1571	196
1572	174
1573	192
1574	182
1575	176
1576	184
1577	175
1578	182
1579	183
1580	192
1581	170
1582	168
1583	194
1584	183
1585	196
1586	203
1587	167
1588	198
1589	179
1590	170
1591	167
1592	177
1593	146
1594	187
1595	174
1596	171
1597	190
1598	208
1599	175
1600	199
1601	178
1602	170
1603	164
1604	199
1605	178
1606	173
1607	175
1608	173
1609	197
1610	194
1611	187
1612	192
1613	188
1614	183
1615	169
1616	217
1617	176
1618	176
1619	181
1620	174
1621	164
1622	174
1623	155
1624	199
1625	185
1626	164
1627	189
1628	168
1629	190
1630	191
1631	187
1632	177
1633	171
1634	161
1635	193
1636	168
1637	185
1638	172
1639	202
1640	218
1641	186
1642	152
1643	187
1644	167
1645	204
1646	187
1647	185
1648	192
1649	175
1650	199
1651	197
1652	163
1653	199
1654	195
1655	197
1656	177
1657	184
1658	191
1659	171
1660	170
1661	183
1662	181
1663	166
1664	159
1665	185
1666	156
1667	195
1668	156
1669	176
1670	181
1671	175
1672	164
1673	175
1674	173
1675	177
1676	195
1677	189
1678	163
1679	175
1680	164
1681	177
1682	179
1683	177
1684	197
1685	164
1686	181
1687	174
1688	184
1689	176
1690	173
1691	169
1692	179
1693	185
1694	196
1695	157
1696	194
1697	190
1698	174
1699	197
1700	183
1701	164
1702	182
1703	178
1704	157
1705	180
1706	182
1707	184
1708	163
1709	147
1710	163
1711	189
1712	196
1713	197
1714	183
1715	193
1716	171
1717	204
1718	161
1719	213
1720	176
1721	164
1722	154
1723	161
1724	186
1725	190
1726	183
1727	190
1728	192
1729	204
1730	162
1731	171
1732	187
1733	201
1734	185
1735	153
1736	175
1737	183
1738	185
1739	175
1740	174
1741	174
1742	188
1743	206
1744	179
1745	174
1746	194
1747	193
1748	207
1749	203
1750	203
1751	170
1752	182
1753	189
1754	158
1755	170
1756	176
1757	177
1758	154
1759	151
1760	181
1761	165
1762	182
1763	174
1764	189
1765	177
1766	168
1767	172
1768	189
1769	178
1770	181
1771	199
1772	206
1773	292
1774	405
1775	738
1776	1676
1777	3663
1778	7543
1779	13250
1780	18431
1781	21037
1782	20432
1783	15124
1784	9036
1785	4334
1786	1716
1787	618
1788	262
1789	200
1790	167
1791	175
1792	151
1793	157
1794	174
1795	147
1796	154
1797	142
1798	157
1799	150
1800	154
1801	139
1802	151
1803	150
1804	144
1805	145
1806	158
1807	135
1808	175
1809	153
1810	134
1811	150
1812	146
1813	168
1814	149
1815	132
1816	149
1817	135
1818	142
1819	154
1820	147
1821	175
1822	131
1823	134
1824	144
1825	131
1826	155
1827	151
1828	110
1829	153
1830	167
1831	117
1832	131
1833	156
1834	139
1835	163
1836	139
1837	138
1838	139
1839	123
1840	117
1841	140
1842	128
1843	162
1844	142
1845	154
1846	150
1847	154
1848	151
1849	161
1850	138
1851	146
1852	133
1853	155
1854	145
1855	155
1856	121
1857	159
1858	143
1859	149
1860	133
1861	137
1862	152
1863	141
1864	146
1865	131
1866	146
1867	148
1868	107
1869	144
1870	158
1871	125
1872	150
1873	168
1874	133
1875	142
1876	155
1877	174
1878	164
1879	145
1880	133
1881	137
1882	120
1883	132
1884	150
1885	162
1886	160
1887	148
1888	168
1889	144
1890	167
1891	135
1892	153
1893	156
1894	146
1895	155
1896	144
1897	162
1898	156
1899	137
1900	124
1901	141
1902	138
1903	143
1904	133
1905	132
1906	143
1907	149
1908	134
1909	144
1910	159
1911	159
1912	161
1913	146
1914	155
1915	123
1916	138
1917	148
1918	132
1919	145
1920	158
1921	143
1922	158
1923	137
1924	143
1925	168
1926	131
1927	120
1928	136
1929	139
1930	148
1931	134
1932	148
1933	135
1934	137
1935	137
1936	175
1937	151
1938	134
1939	135
1940	145
1941	148
1942	136
1943	148
1944	126
1945	158
1946	139
1947	171
1948	154
1949	150
1950	134
1951	135
1952	134
1953	133
1954	128
1955	149
1956	142
1957	136
1958	152
1959	134
1960	159
1961	142
1962	143
1963	138
1964	147
1965	174
1966	156
1967	156
1968	157
1969	177
1970	147
1971	155
1972	136
1973	140
1974	155
1975	142
1976	147
1977	172
1978	151
1979	140
1980	138
1981	167
1982	161
1983	144
1984	134
1985	152
1986	153
1987	146
1988	165
1989	130
1990	129
1991	143
1992	120
1993	146
1994	155
1995	148
1996	144
1997	135
1998	133
1999	143
2000	162
2001	157
2002	144
2003	153
2004	170
2005	145
2006	167
2007	161
2008	151
2009	165
2010	134
2011	172
2012	145
2013	132
2014	147
2015	151
2016	138
2017	167
2018	165
2019	140
2020	162
2021	157
2022	157
2023	134
2024	154
2025	132
2026	149
2027	144
2028	142
2029	144
2030	146
2031	138
2032	146
2033	169
2034	152
2035	171
2036	153
2037	143
2038	145
2039	135
2040	174
2041	170
2042	176
2043	153
2044	173
2045	136
2046	160
2047	162
2048	152
2049	137
2050	143
2051	154
2052	153
2053	144
2054	146
2055	175
2056	137
2057	130
2058	156
2059	154
2060	160
2061	145
2062	141
2063	143
2064	162
2065	144
2066	160
2067	160
2068	148
2069	144
2070	162
2071	166
2072	162
2073	148
2074	156
2075	158
2076	163
2077	135
2078	159
2079	162
2080	150
2081	144
2082	151
2083	143
2084	157
2085	155
2086	167
2087	165
2088	146
2089	136
2090	151
2091	148
2092	160
2093	187
2094	159
2095	153
2096	170
2097	162
2098	165
2099	143
2100	163
2101	152
2102	142
2103	133
2104	169
2105	153
2106	146
2107	148
2108	152
2109	169
2110	172
2111	155
2112	182
2113	159
2114	150
2115	156
2116	183
2117	162
2118	144
2119	181
2120	163
2121	151
2122	142
2123	161
2124	161
2125	151
2126	147
2127	148
2128	165
2129	181
2130	154
2131	157
2132	168
2133	162
2134	159
2135	152
2136	153
2137	149
2138	162
2139	148
2140	156
2141	178
2142	151
2143	173
2144	136
2145	193
2146	169
2147	167
2148	150
2149	160
2150	158
2151	165
2152	178
2153	160
2154	152
2155	174
2156	160
2157	170
2158	168
2159	168
2160	139
2161	170
2162	167
2163	174
2164	152
2165	159
2166	169
2167	170
2168	132
2169	161
2170	154
2171	169
2172	158
2173	159
2174	189
2175	160
2176	180
2177	145
2178	183
2179	202
2180	171
2181	160
2182	163
2183	179
2184	181
2185	186
2186	163
2187	175
2188	152
2189	172
2190	168
2191	163
2192	173
2193	176
2194	192
2195	188
2196	195
2197	170
2198	166
2199	198
2200	166
2201	173
2202	184
2203	165
2204	167
2205	184
2206	173
2207	177
2208	162
2209	172
2210	179
2211	160
2212	153
2213	179
2214	149
2215	187
2216	152
2217	152
2218	162
2219	183
2220	185
2221	204
2222	169
2223	148
2224	177
2225	145
2226	151
2227	192
2228	177
2229	166
2230	173
2231	173
2232	154
2233	175
2234	182
2235	162
2236	165
2237	167
2238	187
2239	196
2240	181
2241	179
2242	166
2243	181
2244	183
2245	162
2246	173
2247	152
2248	177
2249	168
2250	198
2251	176
2252	182
2253	169
2254	186
2255	171
2256	175
2257	153
2258	190
2259	188
2260	159
2261	182
2262	171
2263	189
2264	172
2265	182
2266	171
2267	166
2268	176
2269	173
2270	194
2271	157
2272	174
2273	178
2274	203
2275	179
2276	191
2277	191
2278	209
2279	164
2280	168
2281	193
2282	173
2283	176
2284	183
2285	189
2286	173
2287	197
2288	172
2289	191
2290	186
2291	204
2292	167
2293	173
2294	200
2295	190
2296	194
2297	176
2298	183
2299	161
2300	202
2301	190
2302	181
2303	171
2304	188
2305	175
2306	187
2307	182
2308	200
2309	170
2310	192
2311	184
2312	170
2313	198
2314	221
2315	207
2316	188
2317	184
2318	167
2319	187
2320	158
2321	179
2322	204
2323	197
2324	195
2325	184
2326	170
2327	195
2328	213
2329	177
2330	236
2331	212
2332	161
2333	205
2334	194
2335	185
2336	192
2337	196
2338	191
2339	191
2340	190
2341	176
2342	203
2343	207
2344	209
2345	183
2346	206
2347	230
2348	209
2349	180
2350	199
2351	217
2352	189
2353	194
2354	194
2355	192
2356	212
2357	214
2358	195
2359	192
2360	214
2361	199
2362	208
2363	183
2364	186
2365	194
2366	189
2367	206
2368	199
2369	216
2370	226
2371	177
2372	188
2373	204
2374	225
2375	237
2376	190
2377	200
2378	196
2379	207
2380	232
2381	174
2382	173
2383	212
2384	208
2385	217
2386	205
2387	198
2388	204
2389	176
2390	224
2391	184
2392	219
2393	218
2394	210
2395	204
2396	197
2397	186
2398	191
2399	193
2400	214
2401	213
2402	195
2403	191
2404	210
2405	214
2406	188
2407	202
2408	221
2409	212
2410	217
2411	202
2412	217
2413	204
2414	209
2415	208
2416	195
2417	200
2418	228
2419	221
2420	241
2421	228
2422	209
2423	199
2424	236
2425	219
2426	221
2427	198
2428	218
2429	229
2430	246
2431	206
2432	258
2433	237
2434	224
2435	224
2436	204
2437	209
2438	207
2439	235
2440	232
2441	224
2442	215
2443	205
2444	211
2445	242
2446	212
2447	229
2448	238
2449	203
2450	265
2451	232
2452	217
2453	265
2454	252
2455	219
2456	212
2457	251
2458	215
2459	223
2460	253
2461	228
2462	241
2463	231
2464	227
2465	214
2466	237
2467	254
2468	194
2469	221
2470	239
2471	245
2472	233
2473	246
2474	244
2475	224
2476	273
2477	222
2478	241
2479	241
2480	261
2481	239
2482	249
2483	237
2484	244
2485	248
2486	269
2487	233
2488	236
2489	235
2490	245
2491	247
2492	258
2493	258
2494	239
2495	257
2496	257
2497	248
2498	238
2499	254
2500	266
2501	255
2502	258
2503	253
2504	265
2505	290
2506	265
2507	285
2508	263
2509	251
2510	256
2511	308
2512	249
2513	270
2514	236
2515	253
2516	247
2517	251
2518	254
2519	239
2520	261
2521	233
2522	234
2523	273
2524	255
2525	259
2526	251
2527	289
2528	272
2529	287
2530	258
2531	257
2532	239
2533	251
2534	283
2535	255
2536	278
2537	244
2538	282
2539	271
2540	259
2541	251
2542	253
2543	261
2544	271
2545	270
2546	254
2547	232
2548	293
2549	263
2550	272
2551	222
2552	282
2553	250
2554	241
2555	229
2556	265
2557	263
2558	249
2559	245
2560	256
2561	250
2562	217
2563	235
2564	232
2565	218
2566	228
2567	214
2568	209
2569	229
2570	217
2571	245
2572	238
2573	228
2574	218
2575	219
2576	215
2577	205
2578	219
2579	213
2580	213
2581	205
2582	182
2583	218
2584	214
2585	190
2586	192
2587	195
2588	211
2589	206
2590	207
2591	192
2592	193
2593	222
2594	213
2595	188
2596	197
2597	196
2598	232
2599	186
2600	212
2601	188
2602	207
2603	176
2604	189
2605	190
2606	192
2607	194
2608	198
2609	209
2610	197
2611	213
2612	174
2613	174
2614	171
2615	184
2616	182
2617	203
2618	199
2619	189
2620	197
2621	182
2622	194
2623	193
2624	176
2625	194
2626	197
2627	181
2628	193
2629	181
2630	226
2631	194
2632	190
2633	209
2634	210
2635	169
2636	182
2637	176
2638	191
2639	165
2640	187
2641	226
2642	178
2643	195
2644	190
2645	190
2646	188
2647	186
2648	192
2649	199
2650	174
2651	170
2652	187
2653	183
2654	188
2655	199
2656	173
2657	175
2658	213
2659	192
2660	182
2661	189
2662	174
2663	170
2664	199
2665	183
2666	171
2667	169
2668	161
2669	189
2670	173
2671	174
2672	181
2673	214
2674	178
2675	171
2676	174
2677	188
2678	159
2679	184
2680	173
2681	201
2682	170
2683	194
2684	180
2685	186
2686	183
2687	191
2688	167
2689	184
2690	191
2691	207
2692	181
2693	174
2694	163
2695	191
2696	170
2697	182
2698	159
2699	182
2700	176
2701	150
2702	178
2703	159
2704	190
2705	171
2706	170
2707	196
2708	159
2709	138
2710	179
2711	171
2712	172
2713	173
2714	189
2715	163
2716	176
2717	178
2718	172
2719	169
2720	170
2721	165
2722	159
2723	181
2724	191
2725	168
2726	170
2727	161
2728	168
2729	166
2730	178
2731	173
2732	145
2733	163
2734	195
2735	197
2736	186
2737	173
2738	177
2739	188
2740	183
2741	166
2742	181
2743	171
2744	199
2745	188
2746	194
2747	169
2748	186
2749	188
2750	193
2751	178
2752	159
2753	177
2754	194
2755	172
2756	156
2757	189
2758	163
2759	168
2760	186
2761	174
2762	194
2763	160
2764	186
2765	167
2766	179
2767	195
2768	193
2769	187
2770	181
2771	180
2772	188
2773	180
2774	157
2775	170
2776	174
2777	154
2778	173
2779	171
2780	179
2781	167
2782	173
2783	157
2784	181
2785	172
2786	191
2787	168
2788	152
2789	146
2790	173
2791	184
2792	188
2793	160
2794	176
2795	145
2796	155
2797	169
2798	150
2799	164
2800	151
2801	162
2802	181
2803	182
2804	148
2805	172
2806	160
2807	170
2808	182
2809	159
2810	183
2811	176
2812	164
2813	164
2814	166
2815	172
2816	163
2817	157
2818	191
2819	163
2820	206
2821	163
2822	168
2823	143
2824	190
2825	205
2826	163
2827	147
2828	160
2829	144
2830	163
2831	152
2832	160
2833	171
2834	141
2835	162
2836	183
2837	159
2838	164
2839	146
2840	159
2841	178
2842	162
2843	174
2844	174
2845	174
2846	190
2847	159
2848	166
2849	154
2850	170
2851	173
2852	140
2853	159
2854	184
2855	159
2856	153
2857	159
2858	175
2859	183
2860	168
2861	166
2862	158
2863	161
2864	177
2865	148
2866	165
2867	174
2868	165
2869	184
2870	155
2871	153
2872	174
2873	178
2874	159
2875	170
2876	182
2877	169
2878	168
2879	168
2880	183
2881	155
2882	156
2883	196
2884	156
2885	161
2886	171
2887	159
2888	194
2889	202
2890	166
2891	162
2892	169
2893	147
2894	169
2895	158
2896	190
2897	184
2898	159
2899	172
2900	195
2901	156
2902	199
2903	172
2904	193
2905	183
2906	186
2907	200
2908	185
2909	165
2910	155
2911	170
2912	176
2913	165
2914	162
2915	161
2916	180
2917	180
2918	205
2919	170
2920	195
2921	157
2922	180
2923	169
2924	171
2925	196
2926	175
2927	169
2928	189
2929	172
2930	174
2931	166
2932	164
2933	170
2934	179
2935	177
2936	175
2937	161
2938	160
2939	184
2940	187
2941	172
2942	173
2943	184
2944	144
2945	169
2946	176
2947	163
2948	175
2949	188
2950	186
2951	183
2952	188
2953	168
2954	160
2955	167
2956	145
2957	158
2958	174
2959	183
2960	158
2961	180
2962	148
2963	162
2964	161
2965	147
2966	131
2967	141
2968	140
2969	135
2970	108
2971	130
2972	119
2973	117
2974	123
2975	122
2976	139
2977	132
2978	136
2979	126
2980	107
2981	117
2982	117
2983	124
2984	111
2985	113
2986	132
2987	106
2988	93
2989	129
2990	139
2991	131
2992	116
2993	111
2994	114
2995	109
2996	103
2997	102
2998	94
2999	111
3000	120
3001	100
3002	115
3003	108
3004	95
3005	98
3006	115
3007	106
3008	100
3009	99
3010	98
3011	103
3012	90
3013	105
3014	110
3015	119
3016	129
3017	106
3018	101
3019	105
3020	101
3021	105
3022	124
3023	97
3024	114
3025	84
3026	94
3027	101
3028	106
3029	88
3030	68
3031	99
3032	100
3033	110
3034	87
3035	105
3036	87
3037	91
3038	113
3039	90
3040	104
3041	102
3042	93
3043	88
3044	94
3045	95
3046	71
3047	81
3048	94
3049	98
3050	85
3051	95
3052	85
3053	92
3054	78
3055	110
3056	83
3057	86
3058	85
3059	70
3060	83
3061	102
3062	100
3063	101
3064	95
3065	85
3066	94
3067	84
3068	67
3069	107
3070	88
3071	108
3072	90
3073	82
3074	72
3075	100
3076	83
3077	79
3078	86
3079	71
3080	91
3081	73
3082	63
3083	79
3084	64
3085	89
3086	90
3087	86
3088	81
3089	88
3090	87
3091	85
3092	85
3093	85
3094	87
3095	88
3096	99
3097	98
3098	138
3099	215
3100	361
3101	821
3102	1685
3103	3244
3104	5456
3105	7759
3106	9520
3107	9691
3108	8286
3109	5886
3110	3617
3111	1830
3112	758
3113	274
3114	150
3115	114
3116	83
3117	81
3118	78
3119	62
3120	71
3121	61
3122	80
3123	64
3124	57
3125	79
3126	73
3127	53
3128	72
3129	70
3130	71
3131	72
3132	62
3133	77
3134	66
3135	70
3136	70
3137	80
3138	68
3139	74
3140	68
3141	70
3142	67
3143	66
3144	64
3145	55
3146	60
3147	64
3148	56
3149	57
3150	42
3151	54
3152	50
3153	57
3154	58
3155	52
3156	63
3157	55
3158	57
3159	52
3160	46
3161	43
3162	55
3163	54
3164	42
3165	58
3166	59
3167	60
3168	62
3169	47
3170	55
3171	48
3172	43
3173	45
3174	50
3175	38
3176	44
3177	47
3178	53
3179	42
3180	71
3181	49
3182	45
3183	45
3184	50
3185	36
3186	58
3187	39
3188	38
3189	50
3190	50
3191	52
3192	49
3193	44
3194	49
3195	43
3196	38
3197	37
3198	57
3199	34
3200	42
3201	33
3202	42
3203	45
3204	24
3205	39
3206	33
3207	35
3208	37
3209	39
3210	29
3211	46
3212	34
3213	36
3214	30
3215	47
3216	40
3217	35
3218	32
3219	37
3220	39
3221	36
3222	40
3223	37
3224	43
3225	40
3226	28
3227	24
3228	35
3229	35
3230	33
3231	31
3232	36
3233	32
3234	35
3235	28
3236	33
3237	32
3238	27
3239	30
3240	23
3241	33
3242	35
3243	30
3244	27
3245	40
3246	33
3247	20
3248	24
3249	28
3250	24
3251	24
3252	38
3253	31
3254	31
3255	28
3256	24
3257	25
3258	28
3259	26
3260	29
3261	24
3262	29
3263	29
3264	20
3265	28
3266	29
3267	26
3268	20
3269	39
3270	29
3271	27
3272	31
3273	26
3274	19
3275	22
3276	26
3277	29
3278	31
3279	21
3280	25
3281	25
3282	28
3283	27
3284	32
3285	27
3286	26
3287	28
3288	26
3289	28
3290	21
3291	21
3292	24
3293	22
3294	28
3295	27
3296	13
3297	25
3298	25
3299	27
3300	25
3301	22
3302	20
3303	17
3304	12
3305	24
3306	28
3307	25
3308	15
3309	21
3310	26
3311	21
3312	32
3313	19
3314	25
3315	15
3316	24
3317	23
3318	25
3319	27
3320	29
3321	27
3322	20
3323	22
3324	37
3325	23
3326	20
3327	19
3328	18
3329	31
3330	18
3331	19
3332	21
3333	13
3334	20
3335	22
3336	21
3337	19
3338	17
3339	23
3340	14
3341	23
3342	22
3343	26
3344	26
3345	17
3346	29
3347	25
3348	19
3349	29
3350	11
3351	19
3352	19
3353	21
3354	22
3355	21
3356	18
3357	24
3358	25
3359	13
3360	18
3361	19
3362	61
3363	95
3364	165
3365	346
3366	579
3367	934
3368	1189
3369	1328
3370	1268
3371	986
3372	744
3373	417
3374	198
3375	94
3376	44
3377	26
3378	22
3379	19
3380	30
3381	12
3382	24
3383	22
3384	14
3385	22
3386	15
3387	21
3388	21
3389	24
3390	19
3391	21
3392	22
3393	24
3394	26
3395	14
3396	17
3397	16
3398	19
3399	10
3400	17
3401	24
3402	17
3403	19
3404	16
3405	15
3406	13
3407	22
3408	27
3409	14
3410	9
3411	17
3412	16
3413	15
3414	21
3415	22
3416	12
3417	22
3418	11
3419	25
3420	18
3421	11
3422	20
3423	18
3424	19
3425	17
3426	17
3427	14
3428	7
3429	11
3430	17
3431	10
3432	16
3433	23
3434	20
3435	12
3436	19
3437	18
3438	20
3439	24
3440	14
3441	16
3442	18
3443	18
3444	21
3445	14
3446	13
3447	20
3448	24
3449	15
3450	19
3451	14
3452	14
3453	21
3454	12
3455	16
3456	11
3457	18
3458	18
3459	12
3460	21
3461	18
3462	20
3463	13
3464	12
3465	17
3466	14
3467	16
3468	19
3469	27
3470	16
3471	16
3472	22
3473	14
3474	18
3475	21
3476	8
3477	18
3478	12
3479	13
3480	17
3481	20
3482	22
3483	20
3484	13
3485	15
3486	19
3487	17
3488	19
3489	14
3490	20
3491	26
3492	10
3493	20
3494	12
3495	22
3496	21
3497	24
3498	16
3499	14
3500	13
3501	21
3502	17
3503	26
3504	25
3505	19
3506	20
3507	22
3508	26
3509	32
3510	40
3511	67
3512	160
3513	396
3514	886
3515	1834
3516	3270
3517	5391
3518	7381
3519	8444
3520	8471
3521	6909
3522	4883
3523	2806
3524	1422
3525	604
3526	240
3527	94
3528	44
3529	20
3530	14
3531	10
3532	9
3533	12
3534	13
3535	10
3536	12
3537	14
3538	12
3539	7
3540	12
3541	11
3542	8
3543	14
3544	9
3545	12
3546	8
3547	7
3548	8
3549	16
3550	8
3551	9
3552	6
3553	13
3554	13
3555	16
3556	14
3557	14
3558	9
3559	14
3560	10
3561	5
3562	6
3563	5
3564	12
3565	14
3566	12
3567	9
3568	10
3569	6
3570	9
3571	10
3572	12
3573	13
3574	3
3575	7
3576	8
3577	9
3578	7
3579	6
3580	12
3581	9
3582	9
3583	6
3584	12
3585	8
3586	11
3587	6
3588	10
3589	3
3590	8
3591	10
3592	9
3593	5
3594	6
3595	5
3596	5
3597	5
3598	2
3599	4
3600	12
3601	4
3602	10
3603	11
3604	10
3605	5
3606	7
3607	7
3608	6
3609	6
3610	9
3611	9
3612	7
3613	6
3614	1
3615	8
3616	12
3617	4
3618	9
3619	9
3620	8
3621	8
3622	4
3623	10
3624	8
3625	10
3626	10
3627	7
3628	6
3629	6
3630	9
3631	6
3632	5
3633	13
3634	4
3635	11
3636	8
3637	8
3638	5
3639	9
3640	8
3641	4
3642	6
3643	4
3644	4
3645	8
3646	13
3647	2
3648	11
3649	8
3650	6
3651	5
3652	5
3653	6
3654	9
3655	9
3656	10
3657	2
3658	7
3659	7
3660	5
3661	12
3662	3
3663	7
3664	4
3665	10
3666	6
3667	5
3668	7
3669	7
3670	9
3671	6
3672	6
3673	8
3674	9
3675	6
3676	4
3677	7
3678	6
3679	3
3680	8
3681	7
3682	9
3683	9
3684	10
3685	11
3686	10
3687	2
3688	11
3689	7
3690	10
3691	5
3692	2
3693	10
3694	4
3695	5
3696	7
3697	10
3698	8
3699	5
3700	7
3701	5
3702	11
3703	4
3704	5
3705	6
3706	9
3707	9
3708	5
3709	9
3710	7
3711	6
3712	9
3713	7
3714	8
3715	5
3716	7
3717	9
3718	5
3719	6
3720	9
3721	7
3722	6
3723	6
3724	8
3725	4
3726	6
3727	8
3728	10
3729	5
3730	4
3731	7
3732	6
3733	2
3734	4
3735	6
3736	7
3737	7
3738	6
3739	12
3740	12
3741	1
3742	9
3743	5
3744	10
3745	5
3746	7
3747	7
3748	5
3749	11
3750	4
3751	5
3752	5
3753	7
3754	5
3755	11
3756	2
3757	2
3758	5
3759	7
3760	6
3761	12
3762	6
3763	10
3764	4
3765	6
3766	4
3767	6
3768	3
3769	8
3770	4
3771	8
3772	5
3773	6
3774	5
3775	8
3776	8
3777	9
3778	6
3779	7
3780	5
3781	9
3782	7
3783	5
3784	10
3785	2
3786	4
3787	4
3788	3
3789	11
3790	7
3791	4
3792	8
3793	7
3794	8
3795	10
3796	5
3797	4
3798	3
3799	5
3800	6
3801	11
3802	10
3803	0
3804	8
3805	3
3806	4
3807	11
3808	5
3809	3
3810	8
3811	7
3812	3
3813	5
3814	4
3815	3
3816	5
3817	3
3818	5
3819	8
3820	10
3821	2
3822	4
3823	5
3824	5
3825	5
3826	8
3827	7
3828	2
3829	6
3830	4
3831	5
3832	11
3833	5
3834	8
3835	2
3836	5
3837	1
3838	9
3839	9
3840	7
3841	8
3842	5
3843	4
3844	8
3845	9
3846	10
3847	8
3848	7
3849	5
3850	4
3851	8
3852	4
3853	9
3854	4
3855	8
3856	5
3857	2
3858	6
3859	5
3860	5
3861	1
3862	4
3863	4
3864	6
3865	8
3866	7
3867	7
3868	7
3869	10
3870	2
3871	6
3872	11
3873	4
3874	5
3875	8
3876	3
3877	9
3878	4
3879	3
3880	5
3881	4
3882	8
3883	4
3884	4
3885	7
3886	9
3887	8
3888	8
3889	3
3890	5
3891	6
3892	4
3893	8
3894	9
3895	5
3896	8
3897	4
3898	5
3899	4
3900	9
3901	11
3902	9
3903	5
3904	6
3905	5
3906	9
3907	6
3908	8
3909	12
3910	5
3911	2
3912	3
3913	7
3914	6
3915	3
3916	5
3917	2
3918	2
3919	6
3920	6
3921	6
3922	4
3923	6
3924	6
3925	3
3926	6
3927	5
3928	5
3929	5
3930	4
3931	6
3932	7
3933	5
3934	3
3935	3
3936	4
3937	1
3938	4
3939	4
3940	1
3941	5
3942	5
3943	8
3944	4
3945	3
3946	3
3947	3
3948	6
3949	4
3950	6
3951	7
3952	3
3953	6
3954	2
3955	6
3956	11
3957	5
3958	6
3959	4
3960	11
3961	4
3962	2
3963	7
3964	6
3965	7
3966	7
3967	7
3968	10
3969	4
3970	6
3971	5
3972	3
3973	7
3974	3
3975	6
3976	7
3977	5
3978	5
3979	4
3980	5
3981	6
3982	2
3983	5
3984	8
3985	5
3986	6
3987	8
3988	4
3989	3
3990	3
3991	5
3992	5
3993	6
3994	5
3995	4
3996	7
3997	2
3998	3
3999	5
4000	3
4001	3
4002	5
4003	7
4004	6
4005	2
4006	4
4007	4
4008	4
4009	1
4010	4
4011	6
4012	6
4013	5
4014	6
4015	3
4016	4
4017	8
4018	4
4019	5
4020	5
4021	4
4022	4
4023	4
4024	3
4025	3
4026	2
4027	9
4028	4
4029	5
4030	4
4031	10
4032	2
4033	6
4034	7
4035	5
4036	4
4037	3
4038	8
4039	3
4040	5
4041	5
4042	6
4043	3
4044	7
4045	3
4046	4
4047	4
4048	4
4049	3
4050	5
4051	6
4052	9
4053	6
4054	5
4055	6
4056	3
4057	5
4058	7
4059	7
4060	1
4061	3
4062	8
4063	5
4064	3
4065	4
4066	9
4067	4
4068	4
4069	7
4070	4
4071	6
4072	6
4073	4
4074	4
4075	4
4076	7
4077	7
4078	6
4079	5
4080	9
4081	7
4082	2
4083	8
4084	2
4085	6
4086	4
4087	2
4088	4
4089	5
4090	3
4091	5
4092	7
4093	4
4094	4
4095	12
4096	8
4097	12
4098	6
4099	3
4100	5
4101	2
4102	3
4103	6
4104	6
4105	6
4106	5
4107	3
4108	6
4109	7
4110	2
4111	5
4112	8
4113	4
4114	2
4115	4
4116	5
4117	6
4118	1
4119	5
4120	4
4121	4
4122	6
4123	4
4124	10
4125	5
4126	6
4127	4
4128	8
4129	4
4130	7
4131	3
4132	6
4133	6
4134	6
4135	10
4136	2
4137	7
4138	5
4139	6
4140	7
4141	7
4142	4
4143	6
4144	5
4145	6
4146	4
4147	3
4148	4
4149	5
4150	2
4151	8
4152	5
4153	2
4154	3
4155	2
4156	2
4157	4
4158	5
4159	6
4160	6
4161	7
4162	6
4163	4
4164	4
4165	6
4166	7
4167	4
4168	4
4169	7
4170	5
4171	8
4172	2
4173	7
4174	6
4175	4
4176	6
4177	3
4178	6
4179	8
4180	3
4181	2
4182	3
4183	5
4184	7
4185	3
4186	3
4187	4
4188	7
4189	3
4190	6
4191	5
4192	5
4193	4
4194	5
4195	4
4196	7
4197	9
4198	5
4199	7
4200	7
4201	6
4202	3
4203	4
4204	2
4205	1
4206	2
4207	4
4208	8
4209	3
4210	1
4211	7
4212	4
4213	8
4214	7
4215	3
4216	2
4217	3
4218	3
4219	6
4220	5
4221	5
4222	4
4223	7
4224	5
4225	1
4226	4
4227	7
4228	4
4229	4
4230	4
4231	4
4232	3
4233	4
4234	3
4235	7
4236	2
4237	5
4238	3
4239	6
4240	2
4241	3
4242	8
4243	7
4244	3
4245	5
4246	4
4247	3
4248	5
4249	4
4250	7
4251	8
4252	5
4253	4
4254	1
4255	3
4256	5
4257	7
4258	4
4259	2
4260	2
4261	1
4262	4
4263	5
4264	4
4265	5
4266	4
4267	4
4268	4
4269	7
4270	5
4271	6
4272	4
4273	5
4274	2
4275	2
4276	2
4277	4
4278	2
4279	3
4280	6
4281	4
4282	5
4283	4
4284	7
4285	1
4286	1
4287	2
4288	9
4289	6
4290	8
4291	3
4292	5
4293	2
4294	6
4295	7
4296	5
4297	3
4298	3
4299	4
4300	4
4301	6
4302	2
4303	2
4304	6
4305	5
4306	4
4307	8
4308	2
4309	1
4310	5
4311	6
4312	2
4313	8
4314	4
4315	3
4316	6
4317	4
4318	3
4319	5
4320	4
4321	6
4322	2
4323	1
4324	4
4325	2
4326	4
4327	9
4328	7
4329	2
4330	3
4331	4
4332	10
4333	2
4334	1
4335	2
4336	6
4337	5
4338	8
4339	2
4340	5
4341	6
4342	4
4343	3
4344	3
4345	0
4346	0
4347	5
4348	5
4349	4
4350	3
4351	5
4352	9
4353	5
4354	5
4355	6
4356	8
4357	1
4358	5
4359	3
4360	6
4361	3
4362	3
4363	1
4364	4
4365	7
4366	3
4367	5
4368	4
4369	6
4370	3
4371	4
4372	2
4373	2
4374	5
4375	10
4376	1
4377	3
4378	5
4379	2
4380	1
4381	7
4382	3
4383	4
4384	1
4385	4
4386	5
4387	3
4388	7
4389	5
4390	5
4391	2
4392	7
4393	3
4394	2
4395	5
4396	3
4397	4
4398	2
4399	2
4400	3
4401	3
4402	3
4403	3
4404	1
4405	5
4406	14
4407	8
4408	5
4409	3
4410	0
4411	4
4412	5
4413	5
4414	3
4415	1
4416	2
4417	3
4418	0
4419	1
4420	3
4421	4
4422	5
4423	2
4424	9
4425	4
4426	5
4427	3
4428	7
4429	4
4430	3
4431	5
4432	4
4433	2
4434	5
4435	4
4436	2
4437	3
4438	4
4439	4
4440	2
4441	5
4442	5
4443	5
4444	2
4445	5
4446	7
4447	3
4448	1
4449	1
4450	5
4451	4
4452	4
4453	7
4454	3
4455	5
4456	1
4457	2
4458	8
4459	5
4460	4
4461	2
4462	2
4463	3
4464	4
4465	3
4466	5
4467	2
4468	6
4469	3
4470	3
4471	3
4472	9
4473	1
4474	0
4475	3
4476	5
4477	5
4478	1
4479	1
4480	2
4481	5
4482	2
4483	8
4484	2
4485	2
4486	1
4487	4
4488	5
4489	6
4490	3
4491	8
4492	3
4493	3
4494	4
4495	6
4496	4
4497	3
4498	4
4499	5
4500	3
4501	3
4502	4
4503	4
4504	3
4505	3
4506	2
4507	1
4508	3
4509	5
4510	3
4511	4
4512	3
4513	4
4514	4
4515	4
4516	8
4517	4
4518	4
4519	3
4520	3
4521	0
4522	4
4523	6
4524	4
4525	0
4526	3
4527	8
4528	2
4529	7
4530	6
4531	5
4532	3
4533	2
4534	2
4535	1
4536	6
4537	3
4538	5
4539	1
4540	5
4541	2
4542	5
4543	7
4544	3
4545	4
4546	2
4547	5
4548	8
4549	1
4550	3
4551	6
4552	2
4553	7
4554	3
4555	2
4556	2
4557	1
4558	1
4559	1
4560	3
4561	4
4562	3
4563	3
4564	4
4565	1
4566	5
4567	3
4568	3
4569	4
4570	3
4571	4
4572	3
4573	1
4574	7
4575	3
4576	2
4577	5
4578	6
4579	5
4580	6
4581	4
4582	3
4583	4
4584	2
4585	1
4586	4
4587	3
4588	2
4589	1
4590	2
4591	2
4592	2
4593	2
4594	5
4595	3
4596	3
4597	3
4598	2
4599	1
4600	2
4601	4
4602	2
4603	4
4604	5
4605	5
4606	5
4607	1
4608	8
4609	7
4610	4
4611	5
4612	2
4613	3
4614	2
4615	6
4616	4
4617	4
4618	5
4619	5
4620	3
4621	5
4622	3
4623	1
4624	7
4625	5
4626	4
4627	0
4628	2
4629	4
4630	2
4631	2
4632	4
4633	5
4634	7
4635	3
4636	2
4637	3
4638	3
4639	1
4640	1
4641	2
4642	7
4643	3
4644	5
4645	4
4646	5
4647	2
4648	3
4649	4
4650	2
4651	5
4652	5
4653	6
4654	2
4655	2
4656	4
4657	0
4658	5
4659	3
4660	3
4661	2
4662	4
4663	2
4664	3
4665	5
4666	4
4667	4
4668	1
4669	3
4670	3
4671	1
4672	3
4673	6
4674	6
4675	1
4676	3
4677	0
4678	4
4679	1
4680	3
4681	3
4682	4
4683	0
4684	5
4685	5
4686	5
4687	6
4688	19
4689	13
4690	19
4691	24
4692	19
4693	18
4694	28
4695	23
4696	24
4697	14
4698	13
4699	6
4700	5
4701	9
4702	1
4703	4
4704	3
4705	5
4706	2
4707	2
4708	2
4709	3
4710	5
4711	3
4712	3
4713	7
4714	4
4715	5
4716	2
4717	3
4718	2
4719	4
4720	3
4721	6
4722	6
4723	6
4724	4
4725	3
4726	4
4727	3
4728	4
4729	2
4730	3
4731	2
4732	3
4733	6
4734	2
4735	4
4736	3
4737	2
4738	1
4739	0
4740	1
4741	7
4742	4
4743	4
4744	1
4745	3
4746	2
4747	2
4748	3
4749	2
4750	3
4751	2
4752	4
4753	2
4754	0
4755	3
4756	3
4757	3
4758	1
4759	4
4760	5
4761	6
4762	3
4763	4
4764	3
4765	2
4766	3
4767	5
4768	3
4769	0
4770	4
4771	7
4772	5
4773	2
4774	1
4775	3
4776	3
4777	4
4778	5
4779	4
4780	5
4781	5
4782	3
4783	3
4784	5
4785	4
4786	3
4787	7
4788	2
4789	4
4790	3
4791	4
4792	5
4793	3
4794	6
4795	1
4796	1
4797	7
4798	2
4799	6
4800	6
4801	4
4802	2
4803	4
4804	4
4805	6
4806	3
4807	1
4808	0
4809	0
4810	1
4811	6
4812	2
4813	3
4814	7
4815	4
4816	3
4817	4
4818	4
4819	1
4820	7
4821	10
4822	3
4823	2
4824	2
4825	9
4826	4
4827	2
4828	5
4829	3
4830	3
4831	3
4832	6
4833	5
4834	6
4835	1
4836	4
4837	3
4838	3
4839	3
4840	1
4841	5
4842	2
4843	3
4844	5
4845	4
4846	2
4847	4
4848	1
4849	7
4850	3
4851	3
4852	4
4853	4
4854	1
4855	1
4856	8
4857	1
4858	3
4859	2
4860	3
4861	7
4862	3
4863	1
4864	1
4865	2
4866	2
4867	3
4868	2
4869	1
4870	6
4871	1
4872	6
4873	1
4874	4
4875	2
4876	1
4877	1
4878	2
4879	5
4880	3
4881	5
4882	0
4883	6
4884	6
4885	4
4886	3
4887	4
4888	3
4889	2
4890	2
4891	1
4892	6
4893	1
4894	1
4895	5
4896	5
4897	3
4898	2
4899	2
4900	5
4901	5
4902	5
4903	0
4904	7
4905	8
4906	1
4907	3
4908	3
4909	0
4910	5
4911	5
4912	2
4913	3
4914	4
4915	3
4916	1
4917	2
4918	4
4919	5
4920	3
4921	2
4922	4
4923	4
4924	2
4925	5
4926	6
4927	3
4928	3
4929	2
4930	5
4931	8
4932	3
4933	3
4934	2
4935	2
4936	1
4937	2
4938	1
4939	4
4940	3
4941	5
4942	2
4943	5
4944	5
4945	4
4946	1
4947	0
4948	5
4949	3
4950	2
4951	0
4952	4
4953	2
4954	4
4955	1
4956	5
4957	3
4958	3
4959	3
4960	4
4961	3
4962	5
4963	4
4964	2
4965	1
4966	4
4967	2
4968	1
4969	2
4970	3
4971	4
4972	4
4973	1
4974	3
4975	1
4976	3
4977	2
4978	3
4979	1
4980	2
4981	2
4982	1
4983	2
4984	2
4985	2
4986	7
4987	4
4988	3
4989	5
4990	4
4991	3
4992	2
4993	3
4994	3
4995	4
4996	0
4997	4
4998	4
4999	3
5000	5
5001	1
5002	5
5003	3
5004	1
5005	2
5006	1
5007	2
5008	6
5009	5
5010	2
5011	2
5012	2
5013	6
5014	5
5015	7
5016	7
5017	3
5018	4
5019	3
5020	1
5021	2
5022	1
5023	2
5024	0
5025	5
5026	2
5027	4
5028	0
5029	3
5030	5
5031	4
5032	7
5033	1
5034	0
5035	2
5036	4
5037	2
5038	4
5039	1
5040	3
5041	3
5042	3
5043	4
5044	4
5045	3
5046	4
5047	5
5048	6
5049	0
5050	6
5051	5
5052	2
5053	1
5054	5
5055	1
5056	8
5057	1
5058	6
5059	2
5060	2
5061	3
5062	2
5063	5
5064	3
5065	7
5066	5
5067	3
5068	3
5069	0
5070	6
5071	3
5072	0
5073	4
5074	4
5075	2
5076	3
5077	3
5078	2
5079	4
5080	3
5081	4
5082	4
5083	4
5084	2
5085	2
5086	1
5087	1
5088	3
5089	1
5090	2
5091	4
5092	4
5093	2
5094	2
5095	2
5096	3
5097	3
5098	1
5099	3
5100	1
5101	1
5102	3
5103	5
5104	7
5105	3
5106	5
5107	6
5108	4
5109	9
5110	3
5111	1
5112	5
5113	4
5114	4
5115	11
5116	4
5117	2
5118	4
5119	3
5120	2
5121	4
5122	1
5123	1
5124	5
5125	1
5126	2
5127	4
5128	6
5129	4
5130	4
5131	5
5132	7
5133	2
5134	3
5135	4
5136	1
5137	2
5138	2
5139	1
5140	2
5141	2
5142	4
5143	1
5144	3
5145	8
5146	3
5147	6
5148	0
5149	2
5150	5
5151	1
5152	5
5153	4
5154	5
5155	2
5156	1
5157	5
5158	1
5159	4
5160	1
5161	4
5162	3
5163	2
5164	1
5165	2
5166	5
5167	3
5168	3
5169	2
5170	3
5171	4
5172	8
5173	2
5174	1
5175	0
5176	1
5177	7
5178	5
5179	3
5180	4
5181	2
5182	4
5183	4
5184	3
5185	1
5186	1
5187	0
5188	2
5189	2
5190	3
5191	2
5192	6
5193	2
5194	1
5195	3
5196	3
5197	2
5198	6
5199	3
5200	4
5201	1
5202	1
5203	0
5204	1
5205	1
5206	3
5207	4
5208	2
5209	2
5210	3
5211	6
5212	7
5213	4
5214	3
5215	2
5216	3
5217	4
5218	4
5219	5
5220	3
5221	2
5222	3
5223	1
5224	5
5225	2
5226	4
5227	4
5228	2
5229	6
5230	2
5231	5
5232	2
5233	10
5234	5
5235	3
5236	2
5237	4
5238	7
5239	3
5240	3
5241	1
5242	2
5243	5
5244	2
5245	1
5246	4
5247	3
5248	1
5249	1
5250	5
5251	3
5252	4
5253	4
5254	3
5255	2
5256	4
5257	3
5258	3
5259	2
5260	3
5261	2
5262	6
5263	2
5264	2
5265	5
5266	3
5267	1
5268	2
5269	3
5270	2
5271	5
5272	2
5273	3
5274	1
5275	1
5276	3
5277	1
5278	2
5279	1
5280	2
5281	1
5282	4
5283	4
5284	2
5285	4
5286	1
5287	3
5288	3
5289	3
5290	4
5291	2
5292	0
5293	1
5294	3
5295	4
5296	2
5297	1
5298	4
5299	4
5300	9
5301	5
5302	1
5303	3
5304	1
5305	3
5306	3
5307	4
5308	7
5309	2
5310	1
5311	3
5312	4
5313	2
5314	3
5315	4
5316	3
5317	5
5318	3
5319	6
5320	4
5321	5
5322	6
5323	5
5324	5
5325	2
5326	4
5327	3
5328	2
5329	3
5330	3
5331	2
5332	3
5333	2
5334	1
5335	2
5336	4
5337	2
5338	1
5339	2
5340	6
5341	3
5342	3
5343	4
5344	1
5345	1
5346	2
5347	3
5348	5
5349	2
5350	2
5351	2
5352	5
5353	2
5354	3
5355	3
5356	4
5357	3
5358	1
5359	0
5360	1
5361	2
5362	1
5363	1
5364	4
5365	3
5366	3
5367	4
5368	5
5369	5
5370	0
5371	1
5372	2
5373	1
5374	8
5375	1
5376	1
5377	2
5378	4
5379	3
5380	6
5381	4
5382	2
5383	4
5384	3
5385	5
5386	3
5387	1
5388	1
5389	3
5390	1
5391	10
5392	3
5393	3
5394	1
5395	2
5396	4
5397	2
5398	2
5399	2
5400	2
5401	4
5402	5
5403	3
5404	4
5405	3
5406	3
5407	4
5408	0
5409	2
5410	7
5411	1
5412	3
5413	5
5414	4
5415	3
5416	3
5417	2
5418	6
5419	3
5420	3
5421	2
5422	1
5423	5
5424	1
5425	4
5426	2
5427	4
5428	0
5429	5
5430	2
5431	4
5432	4
5433	3
5434	1
5435	1
5436	2
5437	5
5438	2
5439	4
5440	3
5441	4
5442	4
5443	6
5444	0
5445	6
5446	4
5447	3
5448	4
5449	3
5450	2
5451	1
5452	2
5453	2
5454	2
5455	3
5456	3
5457	6
5458	3
5459	3
5460	2
5461	4
5462	3
5463	4
5464	1
5465	4
5466	3
5467	1
5468	0
5469	1
5470	2
5471	2
5472	7
5473	2
5474	1
5475	1
5476	7
5477	1
5478	1
5479	2
5480	2
5481	2
5482	6
5483	3
5484	4
5485	6
5486	4
5487	2
5488	2
5489	2
5490	2
5491	2
5492	1
5493	4
5494	2
5495	4
5496	2
5497	0
5498	5
5499	0
5500	1
5501	1
5502	3
5503	4
5504	3
5505	5
5506	1
5507	2
5508	2
5509	4
5510	1
5511	4
5512	0
5513	0
5514	3
5515	1
5516	3
5517	2
5518	3
5519	3
5520	1
5521	7
5522	3
5523	1
5524	1
5525	1
5526	3
5527	4
5528	4
5529	3
5530	3
5531	3
5532	4
5533	3
5534	3
5535	2
5536	4
5537	3
5538	4
5539	1
5540	4
5541	3
5542	3
5543	2
5544	0
5545	3
5546	0
5547	1
5548	4
5549	5
5550	2
5551	4
5552	2
5553	2
5554	6
5555	3
5556	3
5557	1
5558	2
5559	3
5560	2
5561	6
5562	7
5563	2
5564	3
5565	2
5566	3
5567	7
5568	0
5569	1
5570	1
5571	5
5572	2
5573	4
5574	5
5575	5
5576	1
5577	1
5578	4
5579	5
5580	4
5581	1
5582	1
5583	4
5584	1
5585	5
5586	2
5587	0
5588	2
5589	1
5590	1
5591	1
5592	6
5593	2
5594	5
5595	2
5596	5
5597	3
5598	2
5599	3
5600	2
5601	3
5602	3
5603	1
5604	1
5605	3
5606	3
5607	2
5608	1
5609	3
5610	4
5611	5
5612	1
5613	2
5614	5
5615	2
5616	2
5617	0
5618	4
5619	1
5620	3
5621	2
5622	2
5623	2
5624	2
5625	1
5626	0
5627	0
5628	1
5629	3
5630	4
5631	3
5632	3
5633	2
5634	2
5635	4
5636	3
5637	0
5638	3
5639	2
5640	1
5641	2
5642	2
5643	7
5644	1
5645	2
5646	2
5647	2
5648	1
5649	5
5650	2
5651	3
5652	0
5653	3
5654	6
5655	3
5656	1
5657	2
5658	2
5659	1
5660	5
5661	1
5662	1
5663	1
5664	2
5665	5
5666	4
5667	2
5668	1
5669	2
5670	4
5671	2
5672	3
5673	1
5674	5
5675	3
5676	1
5677	4
5678	3
5679	1
5680	3
5681	4
5682	2
5683	6
5684	3
5685	0
5686	3
5687	3
5688	6
5689	2
5690	3
5691	2
5692	5
5693	2
5694	0
5695	3
5696	0
5697	2
5698	4
5699	3
5700	1
5701	1
5702	2
5703	2
5704	0
5705	5
5706	0
5707	1
5708	1
5709	2
5710	3
5711	5
5712	4
5713	3
5714	1
5715	4
5716	1
5717	0
5718	6
5719	2
5720	3
5721	2
5722	1
5723	3
5724	0
5725	1
5726	3
5727	4
5728	1
5729	3
5730	2
5731	3
5732	1
5733	1
5734	3
5735	3
5736	1
5737	7
5738	2
5739	1
5740	4
5741	2
5742	3
5743	1
5744	1
5745	2
5746	1
5747	2
5748	1
5749	4
5750	3
5751	1
5752	1
5753	1
5754	2
5755	2
5756	1
5757	0
5758	4
5759	3
5760	0
5761	4
5762	2
5763	2
5764	4
5765	4
5766	2
5767	2
5768	4
5769	4
5770	3
5771	2
5772	0
5773	4
5774	2
5775	4
5776	1
5777	3
5778	4
5779	3
5780	2
5781	2
5782	1
5783	2
5784	1
5785	3
5786	5
5787	5
5788	1
5789	6
5790	4
5791	0
5792	2
5793	5
5794	2
5795	2
5796	1
5797	4
5798	4
5799	4
5800	5
5801	5
5802	2
5803	3
5804	4
5805	3
5806	5
5807	5
5808	0
5809	3
5810	1
5811	2
5812	4
5813	2
5814	2
5815	3
5816	5
5817	2
5818	1
5819	5
5820	5
5821	4
5822	2
5823	0
5824	1
5825	4
5826	2
5827	3
5828	3
5829	2
5830	2
5831	2
5832	4
5833	10
5834	2
5835	0
5836	3
5837	2
5838	5
5839	1
5840	0
5841	3
5842	2
5843	1
5844	1
5845	4
5846	5
5847	4
5848	5
5849	3
5850	4
5851	1
5852	6
5853	3
5854	5
5855	2
5856	4
5857	4
5858	2
5859	3
5860	2
5861	2
5862	3
5863	5
5864	1
5865	1
5866	2
5867	1
5868	3
5869	3
5870	8
5871	5
5872	3
5873	1
5874	2
5875	1
5876	3
5877	3
5878	4
5879	8
5880	1
5881	5
5882	4
5883	3
5884	3
5885	3
5886	1
5887	5
5888	1
5889	2
5890	2
5891	3
5892	4
5893	3
5894	2
5895	4
5896	2
5897	5
5898	1
5899	6
5900	5
5901	2
5902	1
5903	0
5904	3
5905	4
5906	4
5907	3
5908	3
5909	6
5910	3
5911	2
5912	6
5913	4
5914	2
5915	3
5916	2
5917	4
5918	5
5919	3
5920	3
5921	1
5922	1
5923	5
5924	6
5925	2
5926	2
5927	4
5928	2
5929	2
5930	3
5931	4
5932	3
5933	5
5934	3
5935	6
5936	2
5937	2
5938	3
5939	1
5940	3
5941	4
5942	6
5943	5
5944	1
5945	4
5946	7
5947	9
5948	3
5949	4
5950	5
5951	5
5952	4
5953	7
5954	2
5955	5
5956	4
5957	1
5958	0
5959	3
5960	7
5961	1
5962	3
5963	4
5964	2
5965	5
5966	3
5967	6
5968	3
5969	3
5970	4
5971	0
5972	4
5973	4
5974	7
5975	6
5976	1
5977	4
5978	3
5979	2
5980	6
5981	4
5982	4
5983	4
5984	7
5985	2
5986	3
5987	2
5988	4
5989	6
5990	2
5991	3
5992	3
5993	0
5994	1
5995	4
5996	3
5997	5
5998	4
5999	7
6000	4
6001	2
6002	4
6003	2
6004	5
6005	3
6006	4
6007	2
6008	3
6009	3
6010	2
6011	1
6012	1
6013	3
6014	2
6015	1
6016	5
6017	3
6018	1
6019	3
6020	1
6021	7
6022	5
6023	3
6024	5
6025	3
6026	6
6027	0
6028	3
6029	0
6030	3
6031	2
6032	1
6033	5
6034	3
6035	2
6036	4
6037	3
6038	2
6039	2
6040	0
6041	3
6042	0
6043	2
6044	4
6045	3
6046	3
6047	3
6048	4
6049	7
6050	0
6051	3
6052	1
6053	3
6054	6
6055	4
6056	1
6057	1
6058	2
6059	5
6060	2
6061	2
6062	3
6063	5
6064	2
6065	3
6066	2
6067	3
6068	4
6069	4
6070	2
6071	2
6072	2
6073	3
6074	1
6075	2
6076	3
6077	2
6078	3
6079	1
6080	2
6081	3
6082	3
6083	1
6084	2
6085	0
6086	0
6087	4
6088	2
6089	0
6090	2
6091	3
6092	1
6093	2
6094	2
6095	3
6096	1
6097	5
6098	0
6099	4
6100	2
6101	3
6102	1
6103	1
6104	2
6105	2
6106	2
6107	2
6108	1
6109	1
6110	3
6111	2
6112	1
6113	1
6114	5
6115	4
6116	2
6117	0
6118	1
6119	4
6120	1
6121	4
6122	0
6123	1
6124	0
6125	0
6126	1
6127	0
6128	1
6129	3
6130	1
6131	3
6132	3
6133	2
6134	2
6135	0
6136	1
6137	1
6138	3
6139	1
6140	2
6141	1
6142	0
6143	3
6144	2
6145	1
6146	0
6147	3
6148	1
6149	1
6150	0
6151	1
6152	3
6153	0
6154	2
6155	1
6156	1
6157	0
6158	1
6159	0
6160	0
6161	1
6162	2
6163	2
6164	0
6165	1
6166	0
6167	0
6168	1
6169	0
6170	0
6171	0
6172	0
6173	1
6174	0
6175	1
6176	2
6177	2
6178	1
6179	1
6180	1
6181	0
6182	0
6183	1
6184	3
6185	2
6186	2
6187	1
6188	2
6189	0
6190	1
6191	1
6192	0
6193	0
6194	1
6195	0
6196	3
6197	1
6198	1
6199	3
6200	0
6201	2
6202	3
6203	0
6204	0
6205	1
6206	1
6207	1
6208	1
6209	2
6210	2
6211	1
6212	1
6213	1
6214	0
6215	0
6216	1
6217	1
6218	2
6219	0
6220	0
6221	1
6222	1
6223	1
6224	1
6225	0
6226	2
6227	0
6228	1
6229	0
6230	2
6231	3
6232	0
6233	0
6234	0
6235	0
6236	0
6237	0
6238	0
6239	0
6240	0
6241	0
6242	2
6243	0
6244	3
6245	1
6246	1
6247	0
6248	2
6249	2
6250	0
6251	2
6252	3
6253	1
6254	0
6255	0
6256	0
6257	1
6258	1
6259	0
6260	0
6261	0
6262	1
6263	1
6264	0
6265	0
6266	1
6267	2
6268	1
6269	0
6270	0
6271	1
6272	0
6273	1
6274	2
6275	1
6276	0
6277	0
6278	0
6279	0
6280	1
6281	0
6282	0
6283	1
6284	0
6285	1
6286	0
6287	0
6288	0
6289	0
6290	0
6291	0
6292	0
6293	0
6294	0
6295	1
6296	2
6297	0
6298	0
6299	0
6300	0
6301	1
6302	2
6303	2
6304	1
6305	0
6306	0
6307	1
6308	0
6309	2
6310	0
6311	0
6312	0
6313	0
6314	0
6315	1
6316	1
6317	0
6318	0
6319	0
6320	0
6321	0
6322	2
6323	0
6324	2
6325	0
6326	1
6327	0
6328	2
6329	0
6330	0
6331	0
6332	1
6333	0
6334	1
6335	0
6336	0
6337	1
6338	2
6339	0
6340	0
6341	0
6342	0
6343	0
6344	0
6345	0
6346	1
6347	0
6348	1
6349	1
6350	0
6351	0
6352	0
6353	0
6354	1
6355	1
6356	2
6357	0
6358	2
6359	0
6360	1
6361	0
6362	0
6363	0
6364	0
6365	1
6366	1
6367	0
6368	0
6369	0
6370	1
6371	1
6372	0
6373	0
6374	0
6375	1
6376	0
6377	0
6378	0
6379	0
6380	0
6381	1
6382	1
6383	2
6384	1
6385	1
6386	0
6387	2
6388	0
6389	1
6390	0
6391	0
6392	1
6393	0
6394	0
6395	0
6396	1
6397	1
6398	0
6399	0
6400	0
6401	0
6402	1
6403	1
6404	0
6405	0
6406	1
6407	1
6408	0
6409	0
6410	0
6411	1
6412	0
6413	0
6414	0
6415	0
6416	0
6417	0
6418	1
6419	0
6420	0
6421	0
6422	0
6423	0
6424	0
6425	0
6426	0
6427	0
6428	0
6429	0
6430	0
6431	0
6432	0
6433	0
6434	0
6435	0
6436	0
6437	0
6438	1
6439	0
6440	0
6441	0
6442	1
6443	1
6444	0
6445	1
6446	1
6447	0
6448	0
6449	0
6450	0
6451	0
6452	0
6453	1
6454	0
6455	0
6456	1
6457	0
6458	0
6459	0
6460	2
6461	0
6462	0
6463	1
6464	0
6465	0
6466	0
6467	0
6468	1
6469	0
6470	0
6471	1
6472	1
6473	0
6474	1
6475	1
6476	0
6477	0
6478	0
6479	0
6480	0
6481	0
6482	0
6483	0
6484	0
6485	0
6486	1
6487	0
6488	0
6489	0
6490	0
6491	0
6492	0
6493	0
6494	0
6495	1
6496	0
6497	0
6498	1
6499	0
6500	0
6501	0
6502	0
6503	0
6504	0
6505	0
6506	0
6507	0
6508	1
6509	2
6510	0
6511	0
6512	0
6513	0
6514	0
6515	0
6516	0
6517	2
6518	1
6519	0
6520	0
6521	0
6522	0
6523	1
6524	0
6525	0
6526	0
6527	1
6528	0
6529	0
6530	0
6531	0
6532	0
6533	0
6534	0
6535	0
6536	0
6537	2
6538	0
6539	1
6540	0
6541	0
6542	0
6543	0
6544	0
6545	0
6546	0
6547	2
6548	0
6549	0
6550	0
6551	2
6552	1
6553	5
6554	16
6555	18
6556	42
6557	51
6558	83
6559	86
6560	65
6561	80
6562	77
6563	32
6564	17
6565	23
6566	15
6567	4
6568	1
6569	1
6570	0
6571	0
6572	2
6573	2
6574	0
6575	0
6576	0
6577	0
6578	0
6579	0
6580	0
6581	0
6582	0
6583	0
6584	0
6585	0
6586	0
6587	0
6588	1
6589	0
6590	0
6591	0
6592	0
6593	0
6594	0
6595	0
6596	0
6597	0
6598	0
6599	0
6600	0
6601	0
6602	0
6603	0
6604	0
6605	0
6606	1
6607	0
6608	0
6609	1
6610	0
6611	0
6612	0
6613	0
6614	0
6615	0
6616	0
6617	0
6618	0
6619	0
6620	0
6621	0
6622	1
6623	0
6624	0
6625	0
6626	0
6627	0
6628	0
6629	0
6630	0
6631	0
6632	0
6633	0
6634	0
6635	0
6636	0
6637	0
6638	0
6639	0
6640	0
6641	0
6642	0
6643	0
6644	0
6645	0
6646	0
6647	0
6648	0
6649	1
6650	0
6651	0
6652	0
6653	1
6654	0
6655	0
6656	0
6657	0
6658	0
6659	0
6660	0
6661	1
6662	0
6663	0
6664	0
6665	0
6666	0
6667	0
6668	0
6669	0
6670	0
6671	0
6672	0
6673	0
6674	1
6675	0
6676	0
6677	0
6678	0
6679	0
6680	0
6681	0
6682	0
6683	0
6684	0
6685	0
6686	0
6687	0
6688	0
6689	0
6690	0
6691	0
6692	0
6693	0
6694	0
6695	0
6696	0
6697	0
6698	0
6699	0
6700	0
6701	0
6702	1
6703	0
6704	0
6705	0
6706	0
6707	0
6708	0
6709	0
6710	0
6711	0
6712	0
6713	0
6714	0
6715	0
6716	0
6717	0
6718	0
6719	0
6720	0
6721	0
6722	0
6723	0
6724	0
6725	0
6726	0
6727	0
6728	0
6729	0
6730	0
6731	0
6732	0
6733	0
6734	0
6735	0
6736	0
6737	0
6738	0
6739	0
6740	0
6741	0
6742	0
6743	0
6744	0
6745	0
6746	0
6747	0
6748	0
6749	0
6750	0
6751	0
6752	0
6753	0
6754	0
6755	0
6756	0
6757	0
6758	0
6759	0
6760	0
6761	0
6762	0
6763	0
6764	0
6765	0
6766	0
6767	0
6768	0
6769	0
6770	0
6771	0
6772	0
6773	0
6774	0
6775	0
6776	0
6777	0
6778	0
6779	0
6780	0
6781	0
6782	0
6783	0
6784	1
6785	0
6786	0
6787	0
6788	0
6789	0
6790	1
6791	0
6792	0
6793	0
6794	0
6795	0
6796	0
6797	0
6798	0
6799	0
6800	1
6801	0
6802	0
6803	1
6804	0
6805	0
6806	0
6807	0
6808	0
6809	0
6810	0
6811	0
6812	0
6813	0
6814	0
6815	0
6816	1
6817	0
6818	0
6819	0
6820	1
6821	1
6822	0
6823	0
6824	0
6825	0
6826	0
6827	0
6828	0
6829	0
6830	0
6831	0
6832	0
6833	0
6834	0
6835	0
6836	0
6837	1
6838	0
6839	0
6840	1
6841	1
6842	0
6843	2
6844	0
6845	0
6846	0
6847	0
6848	0
6849	0
6850	0
6851	0
6852	0
6853	0
6854	0
6855	0
6856	0
6857	0
6858	0
6859	0
6860	0
6861	0
6862	0
6863	0
6864	0
6865	0
6866	0
6867	0
6868	0
6869	0
6870	0
6871	0
6872	0
6873	0
6874	0
6875	0
6876	0
6877	1
6878	0
6879	0
6880	0
6881	0
6882	0
6883	0
6884	0
6885	0
6886	0
6887	0
6888	0
6889	0
6890	0
6891	0
6892	1
6893	0
6894	0
6895	0
6896	0
6897	0
6898	0
6899	0
6900	0
6901	0
6902	0
6903	0
6904	0
6905	0
6906	0
6907	0
6908	0
6909	0
6910	0
6911	0
6912	0
6913	0
6914	0
6915	0
6916	0
6917	0
6918	0
6919	0
6920	0
6921	0
6922	0
6923	0
6924	0
6925	0
6926	0
6927	0
6928	0
6929	0
6930	0
6931	0
6932	0
6933	0
6934	0
6935	0
6936	0
6937	0
6938	0
6939	0
6940	0
6941	0
6942	0
6943	0
6944	0
6945	0
6946	0
6947	0
6948	0
6949	0
6950	0
6951	0
6952	0
6953	0
6954	0
6955	0
6956	0
6957	0
6958	0
6959	0
6960	0
6961	0
6962	0
6963	0
6964	0
6965	0
6966	0
6967	1
6968	1
6969	0
6970	0
6971	0
6972	0
6973	1
6974	0
6975	0
6976	0
6977	0
6978	0
6979	0
6980	0
6981	1
6982	0
6983	0
6984	0
6985	0
6986	0
6987	0
6988	0
6989	0
6990	0
6991	0
6992	0
6993	0
6994	0
6995	0
6996	0
6997	0
6998	0
6999	0
7000	0
7001	0
7002	0
7003	0
7004	0
7005	0
7006	0
7007	0
7008	0
7009	0
7010	0
7011	0
7012	0
7013	0
7014	0
7015	0
7016	0
7017	0
7018	0
7019	0
7020	0
7021	0
7022	0
7023	0
7024	0
7025	0
7026	0
7027	0
7028	0
7029	0
7030	0
7031	0
7032	0
7033	0
7034	0
7035	0
7036	0
7037	0
7038	0
7039	0
7040	0
7041	0
7042	0
7043	1
7044	0
7045	0
7046	0
7047	0
7048	0
7049	0
7050	0
7051	0
7052	0
7053	0
7054	0
7055	0
7056	0
7057	0
7058	0
7059	0
7060	0
7061	0
7062	0
7063	0
7064	0
7065	0
7066	0
7067	0
7068	0
7069	0
7070	0
7071	0
7072	0
7073	0
7074	0
7075	0
7076	0
7077	0
7078	0
7079	0
7080	0
7081	0
7082	0
7083	0
7084	0
7085	0
7086	0
7087	0
7088	1
7089	0
7090	0
7091	0
7092	0
7093	0
7094	0
7095	0
7096	0
7097	0
7098	0
7099	0
7100	0
7101	0
7102	0
7103	0
7104	0
7105	0
7106	0
7107	0
7108	0
7109	0
7110	0
7111	0
7112	0
7113	0
7114	0
7115	0
7116	0
7117	0
7118	0
7119	0
7120	0
7121	0
7122	0
7123	0
7124	1
7125	0
7126	0
7127	0
7128	0
7129	0
7130	0
7131	0
7132	0
7133	0
7134	0
7135	0
7136	0
7137	0
7138	0
7139	0
7140	0
7141	0
7142	0
7143	0
7144	0
7145	0
7146	0
7147	0
7148	0
7149	0
7150	0
7151	0
7152	0
7153	0
7154	0
7155	0
7156	1
7157	0
7158	0
7159	0
7160	0
7161	0
7162	0
7163	0
7164	0
7165	0
7166	0
7167	0
7168	0
7169	0
7170	0
7171	0
7172	0
7173	0
7174	0
7175	0
7176	0
7177	0
7178	0
7179	0
7180	0
7181	0
7182	0
7183	0
7184	0
7185	0
7186	0
7187	1
7188	0
7189	0
7190	0
7191	0
7192	0
7193	0
7194	0
7195	0
7196	0
7197	0
7198	0
7199	0
7200	0
7201	0
7202	0
7203	0
7204	0
7205	0
7206	0
7207	0
7208	0
7209	0
7210	0
7211	0
7212	0
7213	0
7214	0
7215	0
7216	0
7217	0
7218	0
7219	0
7220	0
7221	0
7222	0
7223	0
7224	0
7225	0
7226	0
7227	0
7228	0
7229	0
7230	0
7231	0
7232	0
7233	0
7234	0
7235	0
7236	0
7237	0
7238	0
7239	0
7240	0
7241	0
7242	0
7243	0
7244	0
7245	0
7246	0
7247	1
7248	0
7249	0
7250	0
7251	0
7252	0
7253	0
7254	0
7255	0
7256	0
7257	0
7258	0
7259	0
7260	0
7261	0
7262	0
7263	0
7264	0
7265	0
7266	0
7267	0
7268	0
7269	0
7270	0
7271	0
7272	0
7273	0
7274	0
7275	0
7276	0
7277	0
7278	0
7279	0
7280	0
7281	0
7282	0
7283	0
7284	0
7285	0
7286	0
7287	0
7288	0
7289	0
7290	0
7291	0
7292	0
7293	0
7294	0
7295	0
7296	0
7297	0
7298	0
7299	0
7300	0
7301	0
7302	0
7303	0
7304	0
7305	0
7306	0
7307	0
7308	0
7309	0
7310	0
7311	0
7312	0
7313	0
7314	0
7315	0
7316	0
7317	0
7318	0
7319	0
7320	0
7321	0
7322	0
7323	0
7324	0
7325	0
7326	0
7327	0
7328	0
7329	0
7330	0
7331	0
7332	0
7333	0
7334	0
7335	0
7336	0
7337	0
7338	0
7339	0
7340	0
7341	0
7342	0
7343	0
7344	0
7345	0
7346	0
7347	0
7348	0
7349	1
7350	0
7351	0
7352	0
7353	0
7354	0
7355	0
7356	0
7357	0
7358	0
7359	0
7360	0
7361	0
7362	0
7363	0
7364	0
7365	0
7366	0
7367	0
7368	0
7369	0
7370	0
7371	0
7372	0
7373	0
7374	0
7375	0
7376	0
7377	0
7378	0
7379	0
7380	0
7381	0
7382	0
7383	0
7384	0
7385	0
7386	0
7387	0
7388	0
7389	0
7390	0
7391	0
7392	0
7393	0
7394	0
7395	0
7396	0
7397	0
7398	0
7399	0
7400	0
7401	1
7402	0
7403	0
7404	0
7405	0
7406	0
7407	0
7408	0
7409	0
7410	0
7411	0
7412	0
7413	0
7414	0
7415	0
7416	0
7417	0
7418	0
7419	0
7420	0
7421	0
7422	0
7423	0
7424	1
7425	0
7426	0
7427	0
7428	0
7429	0
7430	0
7431	0
7432	0
7433	0
7434	0
7435	0
7436	0
7437	0
7438	0
7439	0
7440	0
7441	0
7442	0
7443	0
7444	0
7445	1
7446	0
7447	0
7448	0
7449	0
7450	0
7451	0
7452	0
7453	0
7454	0
7455	0
7456	0
7457	0
7458	0
7459	0
7460	0
7461	0
7462	0
7463	0
7464	0
7465	0
7466	0
7467	0
7468	0
7469	0
7470	0
7471	0
7472	0
7473	0
7474	0
7475	0
7476	0
7477	0
7478	0
7479	0
7480	0
7481	0
7482	0
7483	0
7484	0
7485	0
7486	0
7487	0
7488	0
7489	0
7490	0
7491	1
7492	0
7493	0
7494	0
7495	0
7496	0
7497	0
7498	0
7499	0
7500	0
7501	0
7502	0
7503	0
7504	0
7505	0
7506	0
7507	0
7508	0
7509	0
7510	0
7511	0
7512	0
7513	0
7514	0
7515	0
7516	0
7517	0
7518	0
7519	0
7520	0
7521	0
7522	0
7523	0
7524	0
7525	0
7526	1
7527	0
7528	0
7529	0
7530	0
7531	0
7532	0
7533	0
7534	0
7535	0
7536	0
7537	0
7538	0
7539	0
7540	0
7541	0
7542	0
7543	0
7544	0
7545	0
7546	0
7547	0
7548	0
7549	0
7550	0
7551	0
7552	0
7553	0
7554	0
7555	0
7556	0
7557	0
7558	0
7559	0
7560	0
7561	0
7562	0
7563	0
7564	0
7565	0
7566	0
7567	0
7568	0
7569	0
7570	0
7571	0
7572	1
7573	0
7574	0
7575	0
7576	0
7577	0
7578	0
7579	0
7580	0
7581	0
7582	0
7583	0
7584	0
7585	0
7586	0
7587	0
7588	0
7589	0
7590	0
7591	0
7592	0
7593	0
7594	0
7595	0
7596	0
7597	0
7598	0
7599	0
7600	0
7601	1
7602	0
7603	0
7604	0
7605	0
7606	0
7607	0
7608	0
7609	0
7610	0
7611	0
7612	0
7613	0
7614	0
7615	0
7616	0
7617	0
7618	0
7619	0
7620	0
7621	0
7622	0
7623	0
7624	0
7625	0
7626	0
7627	0
7628	0
7629	0
7630	0
7631	0
7632	0
7633	0
7634	0
7635	0
7636	0
7637	0
7638	0
7639	0
7640	0
7641	0
7642	0
7643	0
7644	0
7645	0
7646	0
7647	0
7648	0
7649	0
7650	0
7651	0
7652	0
7653	0
7654	0
7655	0
7656	0
7657	0
7658	0
7659	0
7660	0
7661	0
7662	0
7663	0
7664	0
7665	0
7666	0
7667	0
7668	0
7669	0
7670	0
7671	0
7672	0
7673	0
7674	0
7675	0
7676	0
7677	0
7678	0
7679	0
7680	0
7681	0
7682	0
7683	0
7684	0
7685	0
7686	0
7687	0
7688	0
7689	0
7690	0
7691	0
7692	0
7693	0
7694	0
7695	0
7696	0
7697	0
7698	0
7699	0
7700	0
7701	0
7702	0
7703	0
7704	0
7705	0
7706	0
7707	0
7708	0
7709	0
7710	0
7711	0
7712	0
7713	0
7714	0
7715	0
7716	0
7717	0
7718	1
7719	0
7720	0
7721	0
7722	0
7723	0
7724	0
7725	0
7726	0
7727	0
7728	0
7729	0
7730	0
7731	0
7732	0
7733	0
7734	0
7735	0
7736	0
7737	0
7738	0
7739	1
7740	0
7741	0
7742	0
7743	0
7744	0
7745	0
7746	0
7747	0
7748	0
7749	0
7750	0
7751	0
7752	0
7753	0
7754	0
7755	0
7756	0
7757	0
7758	0
7759	0
7760	0
7761	0
7762	0
7763	0
7764	0
7765	0
7766	0
7767	0
7768	0
7769	0
7770	0
7771	0
7772	0
7773	0
7774	0
7775	0
7776	0
7777	0
7778	0
7779	0
7780	0
7781	0
7782	0
7783	0
7784	0
7785	0
7786	0
7787	0
7788	0
7789	0
7790	0
7791	0
7792	0
7793	1
7794	0
7795	0
7796	0
7797	0
7798	0
7799	0
7800	0
7801	0
7802	0
7803	0
7804	0
7805	0
7806	0
7807	0
7808	0
7809	0
7810	0
7811	0
7812	0
7813	0
7814	0
7815	0
7816	0
7817	0
7818	0
7819	0
7820	0
7821	0
7822	0
7823	0
7824	0
7825	0
7826	0
7827	0
7828	0
7829	0
7830	0
7831	0
7832	0
7833	0
7834	0
7835	0
7836	0
7837	0
7838	0
7839	0
7840	0
7841	0
7842	0
7843	0
7844	0
7845	0
7846	0
7847	0
7848	0
7849	0
7850	0
7851	0
7852	0
7853	0
7854	0
7855	0
7856	0
7857	0
7858	1
7859	0
7860	0
7861	0
7862	0
7863	0
7864	0
7865	0
7866	0
7867	0
7868	0
7869	0
7870	0
7871	0
7872	0
7873	0
7874	0
7875	0
7876	0
7877	1
7878	0
7879	0
7880	0
7881	0
7882	0
7883	0
7884	0
7885	0
7886	0
7887	0
7888	0
7889	0
7890	0
7891	0
7892	0
7893	0
7894	0
7895	0
7896	0
7897	0
7898	0
7899	0
7900	0
7901	0
7902	0
7903	0
7904	0
7905	0
7906	0
7907	0
7908	0
7909	0
7910	0
7911	0
7912	0
7913	0
7914	0
7915	0
7916	0
7917	1
7918	0
7919	0
7920	0
7921	0
7922	0
7923	0
7924	0
7925	0
7926	0
7927	0
7928	0
7929	0
7930	0
7931	0
7932	0
7933	0
7934	0
7935	0
7936	0
7937	0
7938	0
7939	0
7940	0
7941	0
7942	0
7943	0
7944	0
7945	0
7946	0
7947	0
7948	0
7949	0
7950	0
7951	0
7952	0
7953	0
7954	0
7955	0
7956	0
7957	0
7958	0
7959	0
7960	0
7961	0
7962	0
7963	0
7964	0
7965	0
7966	0
7967	0
7968	0
7969	0
7970	0
7971	0
7972	0
7973	0
7974	0
7975	0
7976	0
7977	0
7978	0
7979	0
7980	0
7981	0
7982	0
7983	0
7984	0
7985	0
7986	0
7987	0
7988	0
7989	0
7990	0
7991	0
7992	0
7993	0
7994	0
7995	0
7996	0
7997	0
7998	0
7999	0
8000	0
8001	0
8002	0
8003	1
8004	0
8005	0
8006	0
8007	0
8008	0
8009	0
8010	0
8011	0
8012	0
8013	0
8014	0
8015	0
8016	0
8017	0
8018	0
8019	0
8020	0
8021	0
8022	0
8023	0
8024	0
8025	0
8026	0
8027	0
8028	0
8029	0
8030	0
8031	0
8032	0
8033	0
8034	0
8035	0
8036	0
8037	0
8038	0
8039	0
8040	0
8041	0
8042	0
8043	0
8044	0
8045	0
8046	0
8047	0
8048	0
8049	0
8050	0
8051	0
8052	0
8053	0
8054	0
8055	0
8056	0
8057	0
8058	0
8059	0
8060	0
8061	0
8062	0
8063	0
8064	0
8065	0
8066	0
8067	0
8068	0
8069	0
8070	0
8071	0
8072	0
8073	0
8074	0
8075	0
8076	0
8077	0
8078	0
8079	0
8080	0
8081	0
8082	0
8083	0
8084	0
8085	0
8086	0
8087	0
8088	0
8089	0
8090	0
8091	0
8092	0
8093	0
8094	0
8095	0
8096	0
8097	0
8098	0
8099	0
8100	0
8101	0
8102	0
8103	0
8104	0
8105	0
8106	0
8107	0
8108	0
8109	0
8110	0
8111	0
8112	0
8113	0
8114	0
8115	0
8116	0
8117	0
8118	0
8119	0
8120	0
8121	0
8122	0
8123	0
8124	0
8125	0
8126	0
8127	0
8128	0
8129	0
8130	0
8131	0
8132	0
8133	0
8134	0
8135	0
8136	0
8137	0
8138	0
8139	0
8140	0
8141	0
8142	0
8143	0
8144	0
8145	0
8146	0
8147	0
8148	0
8149	0
8150	0
8151	0
8152	0
8153	0
8154	0
8155	0
8156	0
8157	0
8158	0
8159	0
8160	0
8161	0
8162	0
8163	0
8164	0
8165	0
8166	0
8167	0
8168	0
8169	0
8170	0
8171	0
8172	0
8173	0
8174	0
8175	0
8176	0
8177	0
8178	0
8179	0
8180	0
8181	0
8182	0
8183	0
8184	0
8185	0
8186	0
8187	0
8188	0
8189	0
8190	0
8191	0
