0	0
1	0
2	0
3	0
4	0
5	0
6	0
7	0
8	0
9	0
10	0
11	0
12	0
13	0
14	0
15	0
16	0
17	0
18	0
19	0
20	0
21	0
22	0
23	0
24	0
25	0
26	0
27	0
28	0
29	0
30	0
31	0
32	0
33	0
34	0
35	0
36	0
37	0
38	0
39	0
40	0
41	0
42	0
43	0
44	0
45	0
46	0
47	0
48	0
49	0
50	0
51	0
52	0
53	0
54	0
55	0
56	0
57	0
58	0
59	0
60	0
61	0
62	0
63	0
64	0
65	0
66	0
67	0
68	0
69	0
70	0
71	0
72	0
73	0
74	0
75	0
76	0
77	0
78	0
79	0
80	0
81	0
82	0
83	0
84	0
85	0
86	0
87	0
88	0
89	0
90	0
91	0
92	0
93	0
94	0
95	0
96	0
97	0
98	0
99	0
100	0
101	0
102	0
103	0
104	0
105	0
106	0
107	0
108	0
109	0
110	0
111	0
112	0
113	0
114	0
115	0
116	0
117	1
118	83
119	299
120	487
121	636
122	612
123	623
124	594
125	644
126	614
127	569
128	584
129	623
130	626
131	563
132	635
133	540
134	534
135	602
136	550
137	558
138	550
139	552
140	548
141	573
142	569
143	534
144	566
145	558
146	539
147	555
148	529
149	572
150	563
151	522
152	519
153	561
154	538
155	551
156	549
157	504
158	518
159	516
160	527
161	570
162	558
163	509
164	561
165	519
166	553
167	495
168	534
169	524
170	480
171	540
172	531
173	488
174	509
175	474
176	572
177	526
178	505
179	511
180	516
181	506
182	514
183	492
184	489
185	485
186	485
187	463
188	493
189	451
190	491
191	492
192	512
193	471
194	501
195	458
196	492
197	517
198	467
199	489
200	432
201	462
202	492
203	443
204	482
205	502
206	460
207	512
208	461
209	505
210	458
211	496
212	514
213	486
214	493
215	463
216	480
217	500
218	490
219	489
220	496
221	491
222	461
223	475
224	505
225	504
226	518
227	479
228	455
229	496
230	455
231	492
232	464
233	490
234	479
235	440
236	490
237	529
238	475
239	486
240	477
241	467
242	477
243	455
244	483
245	477
246	470
247	485
248	449
249	457
250	477
251	503
252	449
253	481
254	462
255	512
256	463
257	480
258	478
259	505
260	458
261	492
262	510
263	439
264	473
265	517
266	461
267	495
268	472
269	493
270	490
271	455
272	495
273	461
274	470
275	470
276	484
277	464
278	451
279	494
280	501
281	474
282	491
283	436
284	493
285	479
286	499
287	525
288	507
289	496
290	499
291	471
292	479
293	480
294	472
295	462
296	502
297	482
298	482
299	476
300	485
301	507
302	468
303	460
304	494
305	484
306	490
307	473
308	450
309	462
310	488
311	452
312	466
313	439
314	513
315	469
316	508
317	452
318	453
319	507
320	480
321	460
322	517
323	513
324	520
325	453
326	464
327	496
328	518
329	447
330	446
331	500
332	484
333	437
334	461
335	478
336	465
337	474
338	476
339	458
340	473
341	466
342	472
343	518
344	472
345	475
346	434
347	512
348	478
349	463
350	481
351	487
352	486
353	465
354	446
355	489
356	502
357	500
358	467
359	474
360	535
361	466
362	475
363	519
364	547
365	484
366	500
367	476
368	517
369	490
370	457
371	537
372	494
373	527
374	472
375	481
376	498
377	491
378	512
379	517
380	530
381	634
382	721
383	936
384	1042
385	926
386	798
387	560
388	543
389	513
390	506
391	505
392	491
393	491
394	473
395	494
396	493
397	516
398	511
399	506
400	507
401	517
402	485
403	498
404	523
405	480
406	504
407	512
408	437
409	468
410	533
411	486
412	529
413	545
414	482
415	518
416	513
417	491
418	513
419	579
420	538
421	550
422	543
423	533
424	487
425	450
426	483
427	544
428	474
429	483
430	533
431	498
432	521
433	511
434	547
435	535
436	473
437	478
438	520
439	533
440	523
441	468
442	499
443	473
444	517
445	501
446	513
447	509
448	509
449	463
450	477
451	474
452	482
453	503
454	473
455	505
456	502
457	521
458	518
459	496
460	527
461	519
462	487
463	522
464	491
465	503
466	493
467	542
468	544
469	459
470	477
471	503
472	525
473	485
474	527
475	502
476	486
477	494
478	488
479	506
480	464
481	508
482	513
483	531
484	479
485	503
486	479
487	529
488	490
489	505
490	519
491	528
492	517
493	488
494	470
495	509
496	544
497	510
498	516
499	504
500	506
501	507
502	514
503	489
504	501
505	507
506	493
507	546
508	467
509	532
510	534
511	512
512	564
513	529
514	540
515	466
516	530
517	526
518	567
519	517
520	564
521	574
522	510
523	528
524	554
525	512
526	530
527	592
528	560
529	574
530	544
531	563
532	564
533	567
534	557
535	609
536	525
537	567
538	570
539	581
540	560
541	603
542	583
543	606
544	525
545	589
546	591
547	643
548	627
549	655
550	611
551	646
552	662
553	646
554	630
555	627
556	626
557	608
558	633
559	666
560	662
561	639
562	649
563	645
564	606
565	639
566	633
567	673
568	651
569	605
570	616
571	655
572	604
573	662
574	628
575	599
576	631
577	598
578	567
579	605
580	631
581	612
582	579
583	621
584	605
585	579
586	592
587	607
588	620
589	620
590	571
591	569
592	542
593	575
594	539
595	550
596	567
597	591
598	564
599	564
600	564
601	534
602	542
603	591
604	546
605	603
606	577
607	579
608	550
609	584
610	593
611	624
612	590
613	554
614	608
615	553
616	610
617	626
618	590
619	626
620	619
621	588
622	661
623	583
624	629
625	627
626	656
627	628
628	657
629	635
630	585
631	635
632	633
633	607
634	614
635	647
636	658
637	625
638	619
639	618
640	603
641	581
642	618
643	622
644	623
645	591
646	590
647	596
648	582
649	582
650	571
651	592
652	552
653	594
654	601
655	634
656	599
657	605
658	559
659	574
660	573
661	546
662	563
663	541
664	565
665	550
666	582
667	528
668	552
669	531
670	560
671	506
672	557
673	531
674	537
675	547
676	536
677	547
678	520
679	532
680	520
681	546
682	522
683	552
684	526
685	546
686	522
687	535
688	533
689	518
690	497
691	495
692	472
693	535
694	477
695	552
696	484
697	503
698	505
699	533
700	571
701	520
702	482
703	472
704	529
705	523
706	519
707	481
708	549
709	539
710	496
711	511
712	502
713	512
714	471
715	522
716	488
717	511
718	518
719	491
720	501
721	494
722	494
723	505
724	546
725	506
726	497
727	503
728	451
729	479
730	500
731	486
732	507
733	483
734	514
735	489
736	477
737	469
738	433
739	510
740	483
741	499
742	514
743	511
744	493
745	538
746	504
747	480
748	501
749	470
750	514
751	506
752	478
753	482
754	541
755	490
756	472
757	497
758	491
759	448
760	458
761	501
762	470
763	499
764	471
765	512
766	490
767	505
768	532
769	511
770	514
771	502
772	494
773	490
774	488
775	469
776	481
777	460
778	480
779	477
780	492
781	491
782	495
783	444
784	516
785	469
786	541
787	475
788	490
789	515
790	516
791	490
792	471
793	464
794	494
795	492
796	474
797	505
798	510
799	507
800	469
801	492
802	480
803	528
804	471
805	459
806	429
807	493
808	505
809	458
810	506
811	490
812	465
813	474
814	459
815	470
816	481
817	461
818	481
819	498
820	437
821	499
822	479
823	505
824	525
825	450
826	480
827	451
828	487
829	443
830	470
831	449
832	453
833	458
834	507
835	462
836	480
837	488
838	482
839	471
840	428
841	462
842	450
843	470
844	458
845	467
846	487
847	490
848	465
849	470
850	496
851	465
852	472
853	450
854	498
855	436
856	460
857	468
858	490
859	486
860	460
861	470
862	483
863	509
864	507
865	487
866	497
867	474
868	466
869	472
870	442
871	505
872	513
873	551
874	452
875	500
876	462
877	470
878	483
879	475
880	488
881	458
882	434
883	482
884	454
885	474
886	473
887	464
888	484
889	497
890	431
891	456
892	445
893	479
894	499
895	496
896	440
897	493
898	428
899	489
900	490
901	474
902	431
903	489
904	460
905	487
906	492
907	465
908	490
909	503
910	464
911	464
912	461
913	513
914	493
915	480
916	462
917	454
918	477
919	475
920	442
921	489
922	466
923	481
924	474
925	453
926	435
927	423
928	462
929	477
930	460
931	468
932	479
933	466
934	471
935	501
936	458
937	484
938	453
939	450
940	455
941	467
942	455
943	480
944	483
945	445
946	471
947	482
948	441
949	448
950	466
951	417
952	453
953	465
954	417
955	423
956	475
957	410
958	476
959	425
960	448
961	415
962	427
963	418
964	482
965	447
966	452
967	438
968	423
969	461
970	435
971	441
972	423
973	434
974	435
975	422
976	449
977	442
978	420
979	400
980	426
981	409
982	418
983	411
984	425
985	458
986	427
987	437
988	389
989	446
990	422
991	436
992	418
993	443
994	434
995	420
996	400
997	436
998	398
999	430
1000	423
1001	413
1002	415
1003	410
1004	440
1005	432
1006	429
1007	406
1008	438
1009	410
1010	420
1011	421
1012	441
1013	379
1014	378
1015	413
1016	422
1017	436
1018	452
1019	414
1020	372
1021	414
1022	407
1023	432
1024	427
1025	382
1026	452
1027	402
1028	422
1029	452
1030	409
1031	386
1032	370
1033	386
1034	448
1035	421
1036	419
1037	425
1038	403
1039	396
1040	401
1041	433
1042	406
1043	395
1044	399
1045	389
1046	437
1047	412
1048	436
1049	405
1050	409
1051	408
1052	392
1053	433
1054	393
1055	411
1056	413
1057	451
1058	423
1059	413
1060	386
1061	433
1062	419
1063	459
1064	425
1065	422
1066	405
1067	426
1068	427
1069	433
1070	424
1071	406
1072	402
1073	399
1074	360
1075	406
1076	413
1077	380
1078	423
1079	402
1080	430
1081	421
1082	414
1083	430
1084	390
1085	407
1086	393
1087	368
1088	449
1089	433
1090	403
1091	423
1092	407
1093	429
1094	401
1095	409
1096	424
1097	395
1098	406
1099	415
1100	428
1101	392
1102	395
1103	412
1104	426
1105	409
1106	375
1107	379
1108	409
1109	406
1110	405
1111	393
1112	434
1113	408
1114	408
1115	413
1116	417
1117	432
1118	413
1119	399
1120	431
1121	405
1122	423
1123	364
1124	434
1125	381
1126	405
1127	413
1128	406
1129	382
1130	456
1131	442
1132	395
1133	389
1134	423
1135	389
1136	391
1137	369
1138	393
1139	411
1140	409
1141	411
1142	417
1143	425
1144	425
1145	385
1146	436
1147	424
1148	383
1149	390
1150	395
1151	445
1152	419
1153	446
1154	417
1155	461
1156	453
1157	406
1158	445
1159	419
1160	444
1161	442
1162	416
1163	397
1164	462
1165	448
1166	426
1167	429
1168	415
1169	415
1170	449
1171	448
1172	467
1173	414
1174	391
1175	405
1176	462
1177	435
1178	499
1179	418
1180	406
1181	453
1182	453
1183	441
1184	445
1185	484
1186	428
1187	439
1188	443
1189	464
1190	454
1191	409
1192	470
1193	440
1194	496
1195	431
1196	423
1197	472
1198	448
1199	461
1200	468
1201	474
1202	431
1203	457
1204	478
1205	490
1206	451
1207	444
1208	474
1209	434
1210	494
1211	456
1212	428
1213	436
1214	432
1215	431
1216	467
1217	466
1218	506
1219	483
1220	466
1221	459
1222	453
1223	453
1224	452
1225	469
1226	463
1227	477
1228	510
1229	514
1230	514
1231	431
1232	508
1233	502
1234	493
1235	463
1236	441
1237	479
1238	442
1239	452
1240	460
1241	476
1242	527
1243	503
1244	494
1245	480
1246	482
1247	500
1248	471
1249	479
1250	452
1251	514
1252	503
1253	484
1254	470
1255	501
1256	542
1257	495
1258	493
1259	452
1260	465
1261	529
1262	543
1263	499
1264	475
1265	501
1266	458
1267	518
1268	501
1269	500
1270	502
1271	512
1272	536
1273	501
1274	520
1275	477
1276	495
1277	498
1278	522
1279	505
1280	472
1281	509
1282	450
1283	498
1284	488
1285	516
1286	507
1287	508
1288	501
1289	486
1290	481
1291	473
1292	477
1293	478
1294	482
1295	468
1296	454
1297	463
1298	496
1299	447
1300	440
1301	495
1302	442
1303	469
1304	418
1305	410
1306	407
1307	413
1308	420
1309	401
1310	352
1311	398
1312	407
1313	413
1314	374
1315	359
1316	362
1317	360
1318	370
1319	369
1320	338
1321	331
1322	333
1323	339
1324	339
1325	334
1326	354
1327	330
1328	360
1329	342
1330	308
1331	367
1332	332
1333	333
1334	345
1335	329
1336	330
1337	357
1338	324
1339	377
1340	330
1341	334
1342	332
1343	334
1344	326
1345	325
1346	304
1347	302
1348	323
1349	341
1350	328
1351	313
1352	345
1353	323
1354	328
1355	322
1356	304
1357	290
1358	311
1359	335
1360	338
1361	310
1362	323
1363	333
1364	319
1365	274
1366	334
1367	302
1368	298
1369	334
1370	321
1371	301
1372	312
1373	291
1374	317
1375	303
1376	322
1377	282
1378	315
1379	301
1380	313
1381	396
1382	440
1383	554
1384	766
1385	1032
1386	1500
1387	2092
1388	2734
1389	3449
1390	3795
1391	3887
1392	3612
1393	3052
1394	2529
1395	1875
1396	1254
1397	836
1398	593
1399	430
1400	347
1401	338
1402	300
1403	280
1404	263
1405	278
1406	281
1407	261
1408	270
1409	292
1410	248
1411	265
1412	241
1413	243
1414	261
1415	256
1416	273
1417	236
1418	283
1419	254
1420	259
1421	230
1422	262
1423	255
1424	216
1425	274
1426	260
1427	267
1428	240
1429	247
1430	241
1431	247
1432	226
1433	284
1434	236
1435	249
1436	245
1437	245
1438	247
1439	244
1440	208
1441	233
1442	231
1443	271
1444	260
1445	239
1446	225
1447	264
1448	227
1449	228
1450	221
1451	243
1452	218
1453	239
1454	212
1455	238
1456	239
1457	224
1458	234
1459	235
1460	224
1461	202
1462	240
1463	224
1464	235
1465	237
1466	227
1467	212
1468	221
1469	241
1470	222
1471	213
1472	225
1473	220
1474	199
1475	212
1476	219
1477	239
1478	235
1479	207
1480	202
1481	209
1482	213
1483	220
1484	204
1485	236
1486	199
1487	195
1488	210
1489	217
1490	222
1491	223
1492	191
1493	224
1494	201
1495	187
1496	192
1497	202
1498	214
1499	202
1500	198
1501	198
1502	217
1503	188
1504	197
1505	208
1506	217
1507	215
1508	196
1509	190
1510	207
1511	175
1512	207
1513	200
1514	214
1515	189
1516	183
1517	207
1518	185
1519	182
1520	190
1521	182
1522	206
1523	197
1524	194
1525	212
1526	209
1527	231
1528	166
1529	188
1530	211
1531	172
1532	172
1533	206
1534	209
1535	199
1536	214
1537	191
1538	186
1539	202
1540	191
1541	175
1542	200
1543	187
1544	189
1545	184
1546	176
1547	171
1548	182
1549	153
1550	180
1551	208
1552	167
1553	177
1554	195
1555	181
1556	188
1557	182
1558	201
1559	194
1560	183
1561	181
1562	183
1563	207
1564	182
1565	187
1566	167
1567	195
1568	195
1569	189
1570	205
1571	191
1572	188
1573	190
1574	186
1575	180
1576	210
1577	194
1578	210
1579	193
1580	189
1581	190
1582	185
1583	181
1584	197
1585	176
1586	186
1587	209
1588	176
1589	172
1590	190
1591	177
1592	155
1593	178
1594	188
1595	184
1596	174
1597	192
1598	173
1599	199
1600	186
1601	194
1602	181
1603	168
1604	188
1605	205
1606	191
1607	198
1608	193
1609	178
1610	168
1611	183
1612	195
1613	184
1614	214
1615	172
1616	170
1617	192
1618	170
1619	165
1620	188
1621	187
1622	168
1623	181
1624	207
1625	189
1626	182
1627	179
1628	166
1629	160
1630	189
1631	203
1632	200
1633	174
1634	182
1635	179
1636	184
1637	182
1638	154
1639	175
1640	186
1641	204
1642	184
1643	197
1644	156
1645	172
1646	167
1647	201
1648	189
1649	178
1650	172
1651	184
1652	211
1653	184
1654	184
1655	177
1656	178
1657	180
1658	182
1659	204
1660	172
1661	179
1662	181
1663	175
1664	182
1665	186
1666	169
1667	169
1668	189
1669	186
1670	178
1671	176
1672	182
1673	173
1674	203
1675	189
1676	189
1677	190
1678	169
1679	171
1680	199
1681	186
1682	198
1683	192
1684	169
1685	187
1686	191
1687	190
1688	180
1689	173
1690	188
1691	186
1692	175
1693	199
1694	175
1695	205
1696	163
1697	184
1698	149
1699	171
1700	170
1701	185
1702	199
1703	179
1704	157
1705	167
1706	184
1707	177
1708	177
1709	180
1710	182
1711	168
1712	180
1713	165
1714	182
1715	184
1716	164
1717	176
1718	176
1719	188
1720	191
1721	186
1722	189
1723	177
1724	174
1725	183
1726	200
1727	174
1728	172
1729	184
1730	187
1731	197
1732	164
1733	197
1734	185
1735	198
1736	167
1737	163
1738	169
1739	174
1740	213
1741	185
1742	181
1743	170
1744	193
1745	201
1746	198
1747	180
1748	169
1749	170
1750	159
1751	169
1752	165
1753	173
1754	182
1755	197
1756	173
1757	176
1758	182
1759	204
1760	190
1761	197
1762	200
1763	204
1764	180
1765	191
1766	204
1767	177
1768	187
1769	222
1770	188
1771	187
1772	232
1773	263
1774	335
1775	665
1776	1589
1777	3636
1778	7866
1779	13905
1780	19927
1781	22554
1782	20244
1783	14542
1784	8224
1785	3520
1786	1262
1787	412
1788	242
1789	174
1790	161
1791	167
1792	171
1793	165
1794	147
1795	137
1796	153
1797	155
1798	136
1799	148
1800	135
1801	164
1802	149
1803	157
1804	131
1805	147
1806	142
1807	161
1808	138
1809	146
1810	149
1811	132
1812	132
1813	165
1814	158
1815	153
1816	158
1817	154
1818	158
1819	148
1820	152
1821	161
1822	136
1823	147
1824	175
1825	140
1826	135
1827	141
1828	150
1829	128
1830	140
1831	147
1832	151
1833	170
1834	143
1835	140
1836	127
1837	148
1838	136
1839	156
1840	138
1841	132
1842	138
1843	138
1844	144
1845	132
1846	119
1847	135
1848	147
1849	147
1850	128
1851	155
1852	151
1853	129
1854	152
1855	142
1856	140
1857	145
1858	136
1859	147
1860	127
1861	138
1862	138
1863	140
1864	135
1865	146
1866	157
1867	150
1868	137
1869	112
1870	144
1871	138
1872	144
1873	140
1874	136
1875	139
1876	140
1877	129
1878	133
1879	137
1880	143
1881	160
1882	139
1883	149
1884	141
1885	136
1886	141
1887	166
1888	148
1889	131
1890	145
1891	162
1892	145
1893	142
1894	118
1895	141
1896	148
1897	137
1898	167
1899	138
1900	150
1901	142
1902	154
1903	122
1904	140
1905	149
1906	158
1907	117
1908	143
1909	143
1910	150
1911	149
1912	159
1913	142
1914	153
1915	145
1916	149
1917	141
1918	124
1919	136
1920	150
1921	157
1922	143
1923	132
1924	148
1925	146
1926	146
1927	148
1928	127
1929	145
1930	152
1931	159
1932	149
1933	163
1934	146
1935	166
1936	135
1937	129
1938	128
1939	134
1940	149
1941	156
1942	135
1943	123
1944	139
1945	147
1946	153
1947	148
1948	142
1949	131
1950	147
1951	138
1952	140
1953	158
1954	140
1955	135
1956	172
1957	136
1958	148
1959	133
1960	146
1961	153
1962	138
1963	152
1964	150
1965	158
1966	174
1967	150
1968	179
1969	134
1970	130
1971	131
1972	137
1973	140
1974	147
1975	164
1976	161
1977	151
1978	147
1979	153
1980	150
1981	128
1982	156
1983	153
1984	149
1985	171
1986	160
1987	128
1988	152
1989	153
1990	189
1991	136
1992	143
1993	143
1994	164
1995	140
1996	143
1997	151
1998	146
1999	157
2000	127
2001	149
2002	147
2003	163
2004	151
2005	171
2006	143
2007	154
2008	164
2009	136
2010	159
2011	165
2012	170
2013	129
2014	160
2015	153
2016	144
2017	122
2018	143
2019	159
2020	166
2021	134
2022	166
2023	161
2024	147
2025	160
2026	153
2027	156
2028	155
2029	163
2030	165
2031	214
2032	160
2033	136
2034	157
2035	165
2036	152
2037	167
2038	159
2039	166
2040	160
2041	138
2042	154
2043	153
2044	155
2045	168
2046	173
2047	170
2048	167
2049	165
2050	152
2051	175
2052	143
2053	140
2054	145
2055	148
2056	127
2057	153
2058	163
2059	149
2060	155
2061	166
2062	157
2063	133
2064	165
2065	177
2066	161
2067	169
2068	152
2069	158
2070	164
2071	143
2072	161
2073	133
2074	163
2075	144
2076	158
2077	163
2078	136
2079	166
2080	151
2081	156
2082	166
2083	166
2084	145
2085	168
2086	182
2087	136
2088	165
2089	151
2090	145
2091	171
2092	154
2093	158
2094	146
2095	158
2096	161
2097	161
2098	150
2099	157
2100	177
2101	142
2102	157
2103	172
2104	172
2105	134
2106	170
2107	150
2108	185
2109	144
2110	140
2111	178
2112	168
2113	156
2114	159
2115	169
2116	163
2117	147
2118	142
2119	153
2120	170
2121	136
2122	175
2123	157
2124	171
2125	167
2126	163
2127	132
2128	167
2129	176
2130	177
2131	151
2132	146
2133	169
2134	165
2135	177
2136	172
2137	163
2138	165
2139	155
2140	144
2141	170
2142	156
2143	160
2144	176
2145	175
2146	149
2147	138
2148	168
2149	174
2150	159
2151	170
2152	160
2153	198
2154	175
2155	161
2156	180
2157	167
2158	159
2159	168
2160	153
2161	178
2162	157
2163	170
2164	187
2165	163
2166	166
2167	169
2168	168
2169	153
2170	154
2171	172
2172	170
2173	185
2174	182
2175	137
2176	177
2177	179
2178	160
2179	152
2180	137
2181	158
2182	167
2183	188
2184	164
2185	156
2186	180
2187	172
2188	180
2189	165
2190	165
2191	168
2192	167
2193	186
2194	196
2195	188
2196	191
2197	211
2198	185
2199	187
2200	192
2201	189
2202	174
2203	186
2204	178
2205	188
2206	193
2207	136
2208	178
2209	178
2210	169
2211	167
2212	186
2213	194
2214	187
2215	176
2216	168
2217	177
2218	181
2219	183
2220	192
2221	186
2222	172
2223	169
2224	176
2225	154
2226	179
2227	163
2228	187
2229	182
2230	168
2231	146
2232	205
2233	168
2234	180
2235	185
2236	179
2237	176
2238	158
2239	159
2240	193
2241	173
2242	166
2243	170
2244	167
2245	164
2246	152
2247	193
2248	201
2249	183
2250	164
2251	181
2252	171
2253	177
2254	177
2255	198
2256	165
2257	178
2258	183
2259	172
2260	179
2261	178
2262	163
2263	174
2264	153
2265	198
2266	183
2267	144
2268	161
2269	169
2270	201
2271	171
2272	158
2273	168
2274	183
2275	216
2276	181
2277	175
2278	198
2279	171
2280	175
2281	191
2282	195
2283	161
2284	192
2285	176
2286	186
2287	162
2288	186
2289	186
2290	176
2291	182
2292	174
2293	189
2294	165
2295	175
2296	167
2297	174
2298	196
2299	181
2300	156
2301	185
2302	186
2303	184
2304	210
2305	192
2306	198
2307	173
2308	195
2309	170
2310	194
2311	175
2312	166
2313	178
2314	195
2315	181
2316	176
2317	201
2318	187
2319	186
2320	198
2321	190
2322	178
2323	179
2324	176
2325	201
2326	197
2327	193
2328	182
2329	177
2330	189
2331	200
2332	190
2333	184
2334	180
2335	183
2336	209
2337	214
2338	179
2339	169
2340	182
2341	193
2342	216
2343	170
2344	210
2345	181
2346	202
2347	210
2348	207
2349	211
2350	183
2351	177
2352	186
2353	206
2354	208
2355	207
2356	211
2357	195
2358	195
2359	202
2360	190
2361	191
2362	206
2363	204
2364	220
2365	201
2366	196
2367	254
2368	194
2369	201
2370	200
2371	190
2372	200
2373	195
2374	183
2375	191
2376	200
2377	233
2378	206
2379	200
2380	196
2381	190
2382	204
2383	205
2384	219
2385	199
2386	212
2387	216
2388	212
2389	224
2390	233
2391	218
2392	224
2393	185
2394	231
2395	200
2396	215
2397	198
2398	187
2399	208
2400	213
2401	198
2402	229
2403	205
2404	222
2405	190
2406	217
2407	205
2408	193
2409	211
2410	200
2411	212
2412	199
2413	240
2414	194
2415	216
2416	207
2417	230
2418	206
2419	195
2420	240
2421	193
2422	231
2423	205
2424	234
2425	210
2426	211
2427	209
2428	217
2429	224
2430	199
2431	212
2432	212
2433	241
2434	217
2435	219
2436	218
2437	228
2438	230
2439	208
2440	207
2441	238
2442	212
2443	207
2444	229
2445	231
2446	225
2447	214
2448	236
2449	230
2450	221
2451	200
2452	249
2453	250
2454	225
2455	239
2456	246
2457	233
2458	218
2459	247
2460	246
2461	222
2462	265
2463	249
2464	210
2465	255
2466	227
2467	223
2468	246
2469	231
2470	240
2471	256
2472	248
2473	268
2474	242
2475	270
2476	272
2477	259
2478	248
2479	260
2480	235
2481	250
2482	248
2483	255
2484	244
2485	262
2486	251
2487	245
2488	259
2489	260
2490	259
2491	221
2492	264
2493	279
2494	237
2495	257
2496	255
2497	241
2498	259
2499	235
2500	258
2501	266
2502	237
2503	258
2504	252
2505	262
2506	235
2507	243
2508	261
2509	258
2510	254
2511	236
2512	237
2513	243
2514	243
2515	241
2516	240
2517	267
2518	256
2519	257
2520	242
2521	252
2522	268
2523	251
2524	237
2525	258
2526	262
2527	232
2528	257
2529	251
2530	278
2531	266
2532	260
2533	224
2534	245
2535	263
2536	255
2537	251
2538	237
2539	306
2540	273
2541	278
2542	268
2543	252
2544	285
2545	268
2546	262
2547	257
2548	252
2549	258
2550	281
2551	264
2552	231
2553	267
2554	250
2555	233
2556	237
2557	266
2558	241
2559	234
2560	228
2561	230
2562	242
2563	221
2564	256
2565	229
2566	241
2567	220
2568	208
2569	224
2570	231
2571	219
2572	216
2573	209
2574	224
2575	222
2576	188
2577	196
2578	215
2579	185
2580	201
2581	197
2582	184
2583	228
2584	207
2585	165
2586	227
2587	214
2588	177
2589	188
2590	212
2591	209
2592	187
2593	181
2594	192
2595	203
2596	189
2597	186
2598	190
2599	205
2600	190
2601	223
2602	216
2603	191
2604	185
2605	190
2606	193
2607	183
2608	199
2609	217
2610	183
2611	191
2612	170
2613	192
2614	181
2615	184
2616	196
2617	214
2618	186
2619	175
2620	179
2621	181
2622	197
2623	196
2624	183
2625	160
2626	179
2627	203
2628	210
2629	200
2630	190
2631	213
2632	202
2633	199
2634	182
2635	184
2636	210
2637	182
2638	187
2639	180
2640	172
2641	177
2642	181
2643	177
2644	184
2645	193
2646	193
2647	184
2648	169
2649	179
2650	193
2651	169
2652	179
2653	153
2654	180
2655	195
2656	203
2657	197
2658	189
2659	184
2660	177
2661	171
2662	166
2663	198
2664	187
2665	184
2666	171
2667	194
2668	216
2669	203
2670	191
2671	198
2672	177
2673	184
2674	167
2675	206
2676	181
2677	179
2678	178
2679	193
2680	206
2681	196
2682	196
2683	191
2684	178
2685	198
2686	180
2687	190
2688	173
2689	166
2690	178
2691	155
2692	173
2693	166
2694	185
2695	161
2696	170
2697	182
2698	193
2699	182
2700	186
2701	159
2702	186
2703	181
2704	187
2705	160
2706	157
2707	171
2708	182
2709	175
2710	210
2711	185
2712	230
2713	188
2714	194
2715	186
2716	190
2717	165
2718	175
2719	181
2720	186
2721	164
2722	189
2723	186
2724	163
2725	181
2726	175
2727	180
2728	193
2729	177
2730	164
2731	190
2732	170
2733	167
2734	182
2735	191
2736	165
2737	190
2738	181
2739	148
2740	172
2741	156
2742	194
2743	184
2744	177
2745	163
2746	209
2747	176
2748	169
2749	197
2750	184
2751	199
2752	178
2753	182
2754	203
2755	185
2756	186
2757	172
2758	164
2759	173
2760	167
2761	185
2762	188
2763	167
2764	177
2765	178
2766	182
2767	197
2768	174
2769	163
2770	181
2771	178
2772	186
2773	156
2774	155
2775	171
2776	177
2777	165
2778	195
2779	175
2780	166
2781	175
2782	190
2783	179
2784	147
2785	188
2786	152
2787	174
2788	147
2789	165
2790	191
2791	178
2792	196
2793	173
2794	162
2795	165
2796	181
2797	164
2798	152
2799	190
2800	165
2801	199
2802	160
2803	153
2804	163
2805	155
2806	189
2807	172
2808	171
2809	175
2810	165
2811	197
2812	175
2813	179
2814	154
2815	156
2816	173
2817	171
2818	152
2819	161
2820	154
2821	171
2822	162
2823	163
2824	187
2825	171
2826	153
2827	147
2828	169
2829	167
2830	150
2831	162
2832	175
2833	175
2834	168
2835	178
2836	167
2837	166
2838	161
2839	158
2840	174
2841	176
2842	181
2843	162
2844	177
2845	172
2846	159
2847	156
2848	182
2849	150
2850	156
2851	148
2852	179
2853	135
2854	166
2855	164
2856	182
2857	168
2858	154
2859	150
2860	171
2861	169
2862	159
2863	160
2864	168
2865	159
2866	169
2867	175
2868	159
2869	185
2870	177
2871	154
2872	165
2873	173
2874	178
2875	172
2876	188
2877	167
2878	180
2879	158
2880	183
2881	162
2882	168
2883	168
2884	179
2885	173
2886	147
2887	196
2888	162
2889	162
2890	165
2891	169
2892	169
2893	134
2894	171
2895	183
2896	193
2897	170
2898	189
2899	181
2900	154
2901	187
2902	157
2903	186
2904	196
2905	187
2906	180
2907	175
2908	159
2909	164
2910	162
2911	172
2912	195
2913	156
2914	174
2915	197
2916	168
2917	179
2918	194
2919	171
2920	170
2921	185
2922	172
2923	177
2924	199
2925	160
2926	170
2927	178
2928	180
2929	161
2930	189
2931	176
2932	167
2933	199
2934	179
2935	183
2936	162
2937	182
2938	199
2939	176
2940	153
2941	189
2942	168
2943	161
2944	185
2945	203
2946	176
2947	166
2948	162
2949	158
2950	180
2951	143
2952	167
2953	191
2954	164
2955	166
2956	164
2957	155
2958	168
2959	169
2960	162
2961	163
2962	152
2963	145
2964	142
2965	130
2966	145
2967	154
2968	140
2969	136
2970	139
2971	136
2972	119
2973	138
2974	128
2975	126
2976	113
2977	105
2978	121
2979	114
2980	105
2981	100
2982	125
2983	131
2984	138
2985	143
2986	111
2987	134
2988	118
2989	104
2990	109
2991	116
2992	148
2993	126
2994	112
2995	111
2996	106
2997	106
2998	107
2999	116
3000	130
3001	106
3002	100
3003	101
3004	104
3005	110
3006	119
3007	114
3008	108
3009	128
3010	103
3011	121
3012	108
3013	109
3014	123
3015	109
3016	105
3017	96
3018	103
3019	103
3020	125
3021	76
3022	84
3023	82
3024	113
3025	86
3026	121
3027	85
3028	105
3029	96
3030	99
3031	95
3032	101
3033	96
3034	100
3035	103
3036	107
3037	100
3038	71
3039	105
3040	94
3041	106
3042	108
3043	103
3044	93
3045	91
3046	88
3047	100
3048	81
3049	95
3050	103
3051	106
3052	88
3053	93
3054	75
3055	73
3056	79
3057	89
3058	91
3059	93
3060	95
3061	90
3062	98
3063	108
3064	77
3065	82
3066	98
3067	108
3068	65
3069	86
3070	87
3071	79
3072	85
3073	76
3074	90
3075	80
3076	112
3077	74
3078	101
3079	98
3080	78
3081	71
3082	77
3083	83
3084	81
3085	106
3086	94
3087	84
3088	92
3089	71
3090	96
3091	111
3092	85
3093	75
3094	77
3095	82
3096	97
3097	94
3098	130
3099	187
3100	415
3101	825
3102	1765
3103	3473
3104	5841
3105	8287
3106	9929
3107	9941
3108	8097
3109	5730
3110	3063
3111	1490
3112	614
3113	229
3114	115
3115	102
3116	79
3117	65
3118	72
3119	72
3120	71
3121	69
3122	74
3123	71
3124	69
3125	66
3126	73
3127	63
3128	53
3129	70
3130	65
3131	60
3132	72
3133	62
3134	60
3135	75
3136	57
3137	72
3138	52
3139	61
3140	53
3141	56
3142	49
3143	60
3144	47
3145	64
3146	61
3147	56
3148	60
3149	56
3150	64
3151	72
3152	52
3153	50
3154	49
3155	43
3156	66
3157	59
3158	46
3159	58
3160	54
3161	53
3162	50
3163	50
3164	52
3165	47
3166	39
3167	52
3168	62
3169	64
3170	56
3171	52
3172	42
3173	44
3174	49
3175	55
3176	43
3177	35
3178	55
3179	36
3180	46
3181	53
3182	46
3183	61
3184	44
3185	51
3186	43
3187	53
3188	44
3189	38
3190	43
3191	40
3192	45
3193	52
3194	31
3195	42
3196	59
3197	45
3198	47
3199	33
3200	43
3201	38
3202	45
3203	26
3204	46
3205	36
3206	59
3207	44
3208	49
3209	46
3210	44
3211	36
3212	51
3213	38
3214	36
3215	36
3216	38
3217	47
3218	25
3219	33
3220	43
3221	43
3222	37
3223	30
3224	33
3225	30
3226	33
3227	34
3228	31
3229	26
3230	37
3231	38
3232	30
3233	30
3234	27
3235	41
3236	33
3237	30
3238	26
3239	27
3240	37
3241	31
3242	35
3243	41
3244	30
3245	29
3246	24
3247	37
3248	29
3249	27
3250	46
3251	26
3252	36
3253	28
3254	42
3255	36
3256	22
3257	32
3258	30
3259	35
3260	23
3261	21
3262	37
3263	35
3264	27
3265	31
3266	23
3267	22
3268	30
3269	31
3270	26
3271	28
3272	22
3273	21
3274	20
3275	23
3276	20
3277	27
3278	31
3279	24
3280	16
3281	25
3282	26
3283	27
3284	32
3285	21
3286	37
3287	22
3288	22
3289	32
3290	22
3291	23
3292	29
3293	25
3294	17
3295	29
3296	20
3297	20
3298	29
3299	26
3300	26
3301	24
3302	29
3303	21
3304	29
3305	21
3306	25
3307	19
3308	25
3309	18
3310	23
3311	33
3312	22
3313	20
3314	24
3315	22
3316	25
3317	24
3318	23
3319	19
3320	19
3321	17
3322	21
3323	24
3324	21
3325	14
3326	21
3327	20
3328	23
3329	19
3330	24
3331	19
3332	29
3333	20
3334	26
3335	20
3336	21
3337	22
3338	17
3339	18
3340	20
3341	21
3342	23
3343	30
3344	26
3345	15
3346	30
3347	15
3348	18
3349	23
3350	25
3351	19
3352	14
3353	24
3354	21
3355	26
3356	16
3357	25
3358	22
3359	28
3360	24
3361	30
3362	37
3363	90
3364	185
3365	332
3366	592
3367	935
3368	1221
3369	1363
3370	1244
3371	1010
3372	645
3373	361
3374	149
3375	74
3376	29
3377	31
3378	26
3379	14
3380	20
3381	20
3382	19
3383	20
3384	19
3385	25
3386	16
3387	20
3388	19
3389	20
3390	23
3391	26
3392	22
3393	16
3394	14
3395	19
3396	21
3397	20
3398	24
3399	11
3400	14
3401	35
3402	18
3403	24
3404	11
3405	15
3406	21
3407	20
3408	21
3409	30
3410	17
3411	13
3412	13
3413	20
3414	10
3415	16
3416	16
3417	24
3418	26
3419	16
3420	15
3421	22
3422	17
3423	12
3424	16
3425	18
3426	7
3427	18
3428	19
3429	21
3430	23
3431	11
3432	12
3433	19
3434	12
3435	17
3436	16
3437	17
3438	18
3439	13
3440	14
3441	18
3442	20
3443	22
3444	15
3445	27
3446	18
3447	25
3448	21
3449	13
3450	15
3451	18
3452	17
3453	15
3454	20
3455	12
3456	14
3457	10
3458	18
3459	9
3460	20
3461	17
3462	22
3463	16
3464	13
3465	16
3466	16
3467	25
3468	19
3469	22
3470	18
3471	15
3472	15
3473	15
3474	20
3475	22
3476	16
3477	13
3478	9
3479	17
3480	16
3481	24
3482	22
3483	21
3484	18
3485	20
3486	25
3487	20
3488	19
3489	18
3490	20
3491	15
3492	22
3493	16
3494	16
3495	32
3496	23
3497	20
3498	9
3499	14
3500	23
3501	27
3502	20
3503	16
3504	20
3505	30
3506	22
3507	20
3508	23
3509	32
3510	39
3511	82
3512	161
3513	372
3514	933
3515	1922
3516	3651
3517	5693
3518	7592
3519	8816
3520	8283
3521	6787
3522	4522
3523	2520
3524	1130
3525	426
3526	148
3527	61
3528	26
3529	16
3530	18
3531	9
3532	13
3533	25
3534	17
3535	17
3536	18
3537	14
3538	20
3539	14
3540	16
3541	5
3542	12
3543	14
3544	18
3545	7
3546	7
3547	13
3548	5
3549	10
3550	9
3551	16
3552	17
3553	9
3554	10
3555	8
3556	9
3557	13
3558	13
3559	10
3560	13
3561	10
3562	14
3563	2
3564	7
3565	6
3566	11
3567	14
3568	9
3569	12
3570	9
3571	11
3572	10
3573	10
3574	8
3575	15
3576	12
3577	11
3578	14
3579	8
3580	7
3581	9
3582	7
3583	8
3584	12
3585	10
3586	6
3587	6
3588	9
3589	10
3590	5
3591	15
3592	7
3593	11
3594	4
3595	7
3596	6
3597	8
3598	7
3599	6
3600	5
3601	6
3602	6
3603	9
3604	6
3605	8
3606	7
3607	11
3608	4
3609	10
3610	6
3611	7
3612	9
3613	9
3614	7
3615	13
3616	9
3617	14
3618	16
3619	11
3620	7
3621	4
3622	8
3623	5
3624	4
3625	10
3626	5
3627	5
3628	12
3629	9
3630	10
3631	9
3632	9
3633	5
3634	4
3635	3
3636	6
3637	9
3638	8
3639	9
3640	7
3641	8
3642	4
3643	6
3644	8
3645	2
3646	6
3647	7
3648	8
3649	7
3650	15
3651	8
3652	4
3653	6
3654	5
3655	8
3656	5
3657	5
3658	6
3659	7
3660	7
3661	9
3662	6
3663	5
3664	8
3665	4
3666	5
3667	11
3668	9
3669	6
3670	6
3671	5
3672	4
3673	4
3674	8
3675	7
3676	9
3677	9
3678	7
3679	4
3680	2
3681	8
3682	10
3683	3
3684	6
3685	5
3686	6
3687	7
3688	5
3689	8
3690	9
3691	4
3692	7
3693	7
3694	7
3695	4
3696	12
3697	8
3698	2
3699	8
3700	11
3701	6
3702	11
3703	10
3704	8
3705	4
3706	4
3707	7
3708	7
3709	6
3710	3
3711	3
3712	4
3713	3
3714	11
3715	3
3716	3
3717	7
3718	9
3719	6
3720	8
3721	9
3722	6
3723	6
3724	6
3725	6
3726	3
3727	5
3728	8
3729	6
3730	3
3731	10
3732	3
3733	5
3734	7
3735	4
3736	3
3737	10
3738	9
3739	4
3740	8
3741	12
3742	10
3743	5
3744	8
3745	15
3746	8
3747	8
3748	8
3749	5
3750	7
3751	8
3752	6
3753	4
3754	8
3755	10
3756	3
3757	8
3758	7
3759	7
3760	11
3761	5
3762	10
3763	6
3764	7
3765	7
3766	9
3767	10
3768	7
3769	11
3770	7
3771	7
3772	13
3773	5
3774	10
3775	2
3776	6
3777	7
3778	9
3779	2
3780	5
3781	6
3782	8
3783	3
3784	6
3785	6
3786	8
3787	6
3788	4
3789	3
3790	9
3791	4
3792	4
3793	6
3794	13
3795	5
3796	7
3797	6
3798	3
3799	5
3800	5
3801	7
3802	4
3803	7
3804	5
3805	2
3806	5
3807	7
3808	5
3809	4
3810	9
3811	3
3812	7
3813	8
3814	7
3815	9
3816	9
3817	4
3818	8
3819	7
3820	9
3821	3
3822	7
3823	3
3824	9
3825	11
3826	6
3827	7
3828	5
3829	4
3830	5
3831	7
3832	7
3833	5
3834	3
3835	5
3836	6
3837	4
3838	6
3839	4
3840	6
3841	4
3842	12
3843	5
3844	9
3845	9
3846	11
3847	7
3848	4
3849	8
3850	3
3851	13
3852	10
3853	6
3854	5
3855	4
3856	9
3857	8
3858	5
3859	4
3860	1
3861	7
3862	3
3863	5
3864	7
3865	6
3866	4
3867	6
3868	6
3869	4
3870	3
3871	7
3872	6
3873	2
3874	5
3875	2
3876	4
3877	6
3878	1
3879	3
3880	5
3881	4
3882	6
3883	6
3884	5
3885	7
3886	7
3887	5
3888	6
3889	4
3890	10
3891	6
3892	14
3893	3
3894	3
3895	9
3896	13
3897	6
3898	9
3899	4
3900	7
3901	2
3902	11
3903	4
3904	5
3905	6
3906	8
3907	5
3908	7
3909	5
3910	4
3911	4
3912	7
3913	5
3914	7
3915	7
3916	8
3917	7
3918	4
3919	8
3920	3
3921	4
3922	6
3923	7
3924	12
3925	6
3926	5
3927	5
3928	5
3929	5
3930	1
3931	5
3932	4
3933	5
3934	1
3935	6
3936	2
3937	9
3938	3
3939	7
3940	6
3941	4
3942	6
3943	6
3944	8
3945	12
3946	4
3947	4
3948	4
3949	7
3950	6
3951	11
3952	5
3953	6
3954	5
3955	4
3956	4
3957	5
3958	4
3959	2
3960	6
3961	6
3962	7
3963	6
3964	4
3965	10
3966	7
3967	5
3968	5
3969	1
3970	5
3971	7
3972	3
3973	11
3974	4
3975	1
3976	4
3977	5
3978	6
3979	6
3980	9
3981	6
3982	5
3983	5
3984	7
3985	5
3986	2
3987	7
3988	4
3989	3
3990	4
3991	4
3992	4
3993	3
3994	6
3995	5
3996	6
3997	4
3998	3
3999	3
4000	3
4001	6
4002	7
4003	5
4004	6
4005	4
4006	2
4007	6
4008	6
4009	10
4010	5
4011	6
4012	7
4013	5
4014	7
4015	7
4016	3
4017	5
4018	3
4019	6
4020	2
4021	1
4022	6
4023	8
4024	3
4025	3
4026	4
4027	5
4028	4
4029	6
4030	2
4031	4
4032	6
4033	9
4034	2
4035	4
4036	5
4037	7
4038	3
4039	5
4040	6
4041	5
4042	4
4043	6
4044	5
4045	4
4046	6
4047	7
4048	4
4049	4
4050	7
4051	2
4052	7
4053	5
4054	3
4055	3
4056	4
4057	4
4058	8
4059	6
4060	4
4061	3
4062	6
4063	8
4064	2
4065	4
4066	5
4067	6
4068	7
4069	6
4070	7
4071	6
4072	5
4073	10
4074	5
4075	6
4076	13
4077	3
4078	5
4079	9
4080	4
4081	3
4082	9
4083	1
4084	5
4085	3
4086	5
4087	1
4088	7
4089	2
4090	4
4091	2
4092	6
4093	5
4094	6
4095	4
4096	5
4097	4
4098	6
4099	7
4100	5
4101	8
4102	8
4103	4
4104	7
4105	8
4106	2
4107	1
4108	4
4109	6
4110	8
4111	3
4112	8
4113	5
4114	4
4115	1
4116	7
4117	5
4118	4
4119	4
4120	4
4121	4
4122	4
4123	5
4124	6
4125	5
4126	5
4127	2
4128	2
4129	4
4130	5
4131	5
4132	8
4133	6
4134	8
4135	4
4136	11
4137	4
4138	3
4139	6
4140	5
4141	8
4142	3
4143	7
4144	6
4145	4
4146	3
4147	2
4148	5
4149	3
4150	5
4151	3
4152	5
4153	3
4154	10
4155	4
4156	2
4157	9
4158	6
4159	3
4160	4
4161	4
4162	6
4163	6
4164	5
4165	2
4166	3
4167	8
4168	3
4169	4
4170	4
4171	3
4172	6
4173	9
4174	5
4175	6
4176	6
4177	4
4178	6
4179	6
4180	8
4181	5
4182	4
4183	1
4184	7
4185	4
4186	1
4187	5
4188	5
4189	5
4190	2
4191	4
4192	9
4193	4
4194	5
4195	3
4196	2
4197	7
4198	5
4199	8
4200	5
4201	5
4202	5
4203	3
4204	5
4205	8
4206	7
4207	2
4208	3
4209	4
4210	6
4211	4
4212	6
4213	8
4214	1
4215	5
4216	4
4217	13
4218	2
4219	2
4220	6
4221	0
4222	4
4223	5
4224	4
4225	4
4226	7
4227	3
4228	3
4229	6
4230	3
4231	2
4232	5
4233	5
4234	2
4235	7
4236	5
4237	3
4238	5
4239	5
4240	7
4241	1
4242	6
4243	3
4244	6
4245	4
4246	2
4247	4
4248	5
4249	4
4250	4
4251	7
4252	4
4253	5
4254	4
4255	9
4256	3
4257	3
4258	7
4259	1
4260	4
4261	1
4262	3
4263	4
4264	2
4265	4
4266	1
4267	3
4268	6
4269	2
4270	6
4271	2
4272	5
4273	4
4274	2
4275	5
4276	5
4277	0
4278	3
4279	5
4280	5
4281	7
4282	0
4283	2
4284	5
4285	2
4286	4
4287	4
4288	3
4289	7
4290	3
4291	1
4292	2
4293	2
4294	4
4295	4
4296	3
4297	1
4298	5
4299	4
4300	2
4301	5
4302	4
4303	4
4304	2
4305	12
4306	3
4307	5
4308	5
4309	4
4310	4
4311	5
4312	7
4313	2
4314	3
4315	4
4316	6
4317	1
4318	2
4319	2
4320	2
4321	3
4322	4
4323	1
4324	3
4325	1
4326	2
4327	5
4328	4
4329	5
4330	5
4331	6
4332	4
4333	4
4334	6
4335	3
4336	4
4337	2
4338	3
4339	2
4340	5
4341	7
4342	1
4343	2
4344	5
4345	3
4346	5
4347	4
4348	4
4349	5
4350	0
4351	3
4352	3
4353	3
4354	3
4355	1
4356	8
4357	8
4358	3
4359	3
4360	5
4361	7
4362	4
4363	4
4364	2
4365	4
4366	8
4367	5
4368	4
4369	4
4370	2
4371	7
4372	3
4373	2
4374	2
4375	1
4376	5
4377	7
4378	3
4379	8
4380	0
4381	5
4382	7
4383	6
4384	2
4385	4
4386	5
4387	6
4388	4
4389	7
4390	2
4391	2
4392	5
4393	0
4394	3
4395	3
4396	11
4397	2
4398	4
4399	5
4400	9
4401	4
4402	2
4403	3
4404	5
4405	5
4406	5
4407	4
4408	8
4409	5
4410	2
4411	3
4412	2
4413	2
4414	4
4415	3
4416	2
4417	6
4418	3
4419	2
4420	5
4421	4
4422	2
4423	5
4424	3
4425	5
4426	1
4427	6
4428	8
4429	8
4430	4
4431	5
4432	6
4433	10
4434	1
4435	0
4436	3
4437	2
4438	5
4439	2
4440	1
4441	5
4442	2
4443	5
4444	9
4445	6
4446	5
4447	3
4448	3
4449	4
4450	4
4451	2
4452	2
4453	3
4454	7
4455	4
4456	6
4457	3
4458	2
4459	2
4460	1
4461	5
4462	2
4463	4
4464	2
4465	2
4466	4
4467	4
4468	4
4469	2
4470	8
4471	2
4472	3
4473	3
4474	2
4475	2
4476	4
4477	2
4478	2
4479	6
4480	7
4481	4
4482	6
4483	2
4484	8
4485	4
4486	3
4487	2
4488	4
4489	1
4490	3
4491	3
4492	4
4493	3
4494	5
4495	6
4496	4
4497	3
4498	1
4499	5
4500	7
4501	1
4502	7
4503	1
4504	4
4505	2
4506	1
4507	8
4508	3
4509	5
4510	4
4511	7
4512	2
4513	5
4514	3
4515	2
4516	6
4517	2
4518	4
4519	5
4520	2
4521	4
4522	4
4523	4
4524	2
4525	3
4526	0
4527	0
4528	3
4529	2
4530	3
4531	5
4532	6
4533	2
4534	5
4535	5
4536	3
4537	3
4538	1
4539	5
4540	3
4541	4
4542	7
4543	0
4544	1
4545	5
4546	4
4547	3
4548	3
4549	0
4550	7
4551	6
4552	2
4553	1
4554	5
4555	5
4556	4
4557	2
4558	3
4559	4
4560	2
4561	3
4562	2
4563	4
4564	2
4565	2
4566	3
4567	6
4568	3
4569	3
4570	5
4571	5
4572	1
4573	2
4574	6
4575	4
4576	5
4577	2
4578	5
4579	5
4580	4
4581	5
4582	6
4583	2
4584	2
4585	2
4586	4
4587	8
4588	4
4589	4
4590	3
4591	5
4592	8
4593	3
4594	4
4595	6
4596	3
4597	3
4598	1
4599	0
4600	4
4601	5
4602	1
4603	4
4604	2
4605	3
4606	3
4607	5
4608	3
4609	8
4610	3
4611	2
4612	6
4613	1
4614	3
4615	2
4616	3
4617	4
4618	3
4619	6
4620	2
4621	4
4622	3
4623	2
4624	5
4625	2
4626	3
4627	5
4628	2
4629	5
4630	4
4631	4
4632	4
4633	0
4634	2
4635	3
4636	5
4637	4
4638	3
4639	4
4640	5
4641	6
4642	4
4643	2
4644	4
4645	4
4646	1
4647	4
4648	2
4649	4
4650	4
4651	2
4652	4
4653	2
4654	6
4655	2
4656	3
4657	6
4658	3
4659	1
4660	4
4661	1
4662	3
4663	4
4664	3
4665	2
4666	3
4667	5
4668	3
4669	2
4670	3
4671	0
4672	4
4673	5
4674	3
4675	6
4676	2
4677	1
4678	1
4679	3
4680	7
4681	4
4682	3
4683	3
4684	6
4685	4
4686	6
4687	7
4688	9
4689	17
4690	17
4691	14
4692	16
4693	20
4694	22
4695	18
4696	22
4697	16
4698	8
4699	9
4700	7
4701	3
4702	4
4703	3
4704	5
4705	3
4706	1
4707	0
4708	1
4709	4
4710	4
4711	6
4712	4
4713	4
4714	1
4715	3
4716	3
4717	5
4718	1
4719	6
4720	8
4721	4
4722	1
4723	6
4724	3
4725	3
4726	5
4727	2
4728	5
4729	3
4730	1
4731	3
4732	4
4733	1
4734	0
4735	3
4736	2
4737	5
4738	5
4739	1
4740	3
4741	1
4742	5
4743	3
4744	3
4745	1
4746	2
4747	2
4748	5
4749	1
4750	3
4751	3
4752	5
4753	3
4754	5
4755	2
4756	5
4757	4
4758	6
4759	2
4760	3
4761	2
4762	1
4763	3
4764	4
4765	1
4766	4
4767	5
4768	4
4769	4
4770	5
4771	2
4772	8
4773	1
4774	3
4775	6
4776	1
4777	3
4778	2
4779	4
4780	1
4781	3
4782	1
4783	6
4784	4
4785	4
4786	1
4787	5
4788	4
4789	3
4790	3
4791	2
4792	5
4793	1
4794	1
4795	4
4796	4
4797	4
4798	5
4799	3
4800	3
4801	4
4802	1
4803	4
4804	2
4805	3
4806	5
4807	3
4808	1
4809	4
4810	2
4811	2
4812	1
4813	3
4814	2
4815	4
4816	3
4817	2
4818	2
4819	3
4820	11
4821	5
4822	7
4823	3
4824	1
4825	3
4826	4
4827	2
4828	5
4829	6
4830	4
4831	4
4832	2
4833	1
4834	1
4835	3
4836	2
4837	3
4838	0
4839	5
4840	3
4841	1
4842	5
4843	4
4844	2
4845	3
4846	5
4847	2
4848	2
4849	5
4850	5
4851	4
4852	2
4853	4
4854	4
4855	3
4856	4
4857	10
4858	1
4859	5
4860	2
4861	2
4862	3
4863	3
4864	4
4865	2
4866	3
4867	1
4868	1
4869	1
4870	4
4871	2
4872	4
4873	4
4874	3
4875	2
4876	4
4877	5
4878	2
4879	3
4880	0
4881	2
4882	4
4883	2
4884	8
4885	4
4886	1
4887	3
4888	5
4889	4
4890	3
4891	2
4892	3
4893	1
4894	4
4895	7
4896	3
4897	3
4898	2
4899	4
4900	2
4901	2
4902	2
4903	3
4904	0
4905	3
4906	2
4907	5
4908	3
4909	3
4910	5
4911	5
4912	1
4913	4
4914	4
4915	2
4916	5
4917	0
4918	2
4919	6
4920	4
4921	2
4922	2
4923	2
4924	3
4925	3
4926	3
4927	1
4928	2
4929	0
4930	0
4931	2
4932	4
4933	0
4934	1
4935	3
4936	2
4937	3
4938	2
4939	2
4940	1
4941	3
4942	4
4943	2
4944	7
4945	2
4946	4
4947	1
4948	3
4949	2
4950	1
4951	2
4952	6
4953	3
4954	7
4955	2
4956	5
4957	1
4958	2
4959	4
4960	3
4961	2
4962	1
4963	4
4964	2
4965	0
4966	1
4967	5
4968	3
4969	5
4970	5
4971	3
4972	4
4973	2
4974	2
4975	2
4976	5
4977	3
4978	3
4979	6
4980	1
4981	2
4982	4
4983	5
4984	2
4985	8
4986	1
4987	2
4988	2
4989	2
4990	5
4991	2
4992	4
4993	4
4994	4
4995	2
4996	3
4997	3
4998	4
4999	6
5000	1
5001	6
5002	6
5003	1
5004	0
5005	0
5006	2
5007	2
5008	4
5009	4
5010	4
5011	1
5012	3
5013	5
5014	1
5015	5
5016	5
5017	2
5018	2
5019	4
5020	1
5021	4
5022	3
5023	3
5024	2
5025	4
5026	7
5027	3
5028	3
5029	6
5030	1
5031	5
5032	7
5033	2
5034	2
5035	2
5036	3
5037	2
5038	1
5039	3
5040	5
5041	2
5042	1
5043	5
5044	7
5045	3
5046	4
5047	0
5048	4
5049	3
5050	3
5051	3
5052	2
5053	5
5054	1
5055	3
5056	1
5057	2
5058	3
5059	4
5060	4
5061	4
5062	2
5063	4
5064	3
5065	5
5066	2
5067	3
5068	2
5069	1
5070	2
5071	5
5072	1
5073	3
5074	2
5075	6
5076	3
5077	1
5078	2
5079	4
5080	4
5081	3
5082	5
5083	5
5084	6
5085	1
5086	3
5087	2
5088	2
5089	1
5090	4
5091	2
5092	5
5093	3
5094	4
5095	0
5096	3
5097	3
5098	3
5099	2
5100	1
5101	3
5102	6
5103	1
5104	6
5105	5
5106	3
5107	4
5108	1
5109	7
5110	5
5111	2
5112	3
5113	3
5114	2
5115	6
5116	3
5117	4
5118	1
5119	3
5120	2
5121	3
5122	2
5123	3
5124	4
5125	4
5126	6
5127	0
5128	5
5129	2
5130	4
5131	1
5132	4
5133	7
5134	1
5135	2
5136	3
5137	9
5138	2
5139	6
5140	1
5141	6
5142	3
5143	4
5144	4
5145	1
5146	3
5147	8
5148	0
5149	3
5150	3
5151	5
5152	1
5153	7
5154	1
5155	2
5156	2
5157	1
5158	4
5159	3
5160	2
5161	1
5162	3
5163	5
5164	2
5165	3
5166	0
5167	5
5168	2
5169	2
5170	3
5171	7
5172	2
5173	6
5174	3
5175	1
5176	3
5177	3
5178	5
5179	2
5180	4
5181	5
5182	2
5183	2
5184	2
5185	3
5186	2
5187	5
5188	5
5189	2
5190	2
5191	8
5192	6
5193	2
5194	5
5195	2
5196	3
5197	3
5198	4
5199	0
5200	1
5201	2
5202	4
5203	2
5204	5
5205	0
5206	1
5207	6
5208	3
5209	3
5210	4
5211	2
5212	5
5213	5
5214	3
5215	5
5216	4
5217	1
5218	4
5219	0
5220	3
5221	1
5222	3
5223	5
5224	4
5225	4
5226	2
5227	2
5228	6
5229	2
5230	1
5231	7
5232	7
5233	3
5234	1
5235	3
5236	1
5237	3
5238	2
5239	4
5240	4
5241	3
5242	6
5243	3
5244	4
5245	1
5246	7
5247	5
5248	3
5249	2
5250	3
5251	3
5252	5
5253	4
5254	2
5255	2
5256	2
5257	7
5258	2
5259	1
5260	0
5261	1
5262	4
5263	2
5264	4
5265	4
5266	2
5267	3
5268	7
5269	3
5270	7
5271	3
5272	10
5273	2
5274	3
5275	3
5276	6
5277	3
5278	1
5279	4
5280	0
5281	5
5282	0
5283	3
5284	6
5285	1
5286	3
5287	0
5288	5
5289	4
5290	6
5291	2
5292	4
5293	1
5294	2
5295	2
5296	1
5297	2
5298	1
5299	4
5300	3
5301	1
5302	6
5303	2
5304	1
5305	2
5306	4
5307	5
5308	4
5309	1
5310	5
5311	5
5312	2
5313	3
5314	1
5315	1
5316	3
5317	5
5318	4
5319	3
5320	7
5321	1
5322	1
5323	4
5324	5
5325	0
5326	3
5327	2
5328	3
5329	0
5330	6
5331	5
5332	1
5333	3
5334	5
5335	1
5336	3
5337	4
5338	1
5339	3
5340	2
5341	5
5342	2
5343	5
5344	2
5345	2
5346	2
5347	3
5348	2
5349	3
5350	5
5351	2
5352	2
5353	7
5354	1
5355	3
5356	1
5357	4
5358	6
5359	6
5360	2
5361	2
5362	0
5363	4
5364	6
5365	5
5366	4
5367	4
5368	2
5369	0
5370	8
5371	5
5372	3
5373	3
5374	4
5375	3
5376	6
5377	2
5378	1
5379	1
5380	3
5381	3
5382	1
5383	5
5384	2
5385	7
5386	3
5387	2
5388	1
5389	8
5390	3
5391	5
5392	2
5393	3
5394	4
5395	2
5396	5
5397	4
5398	3
5399	3
5400	3
5401	0
5402	3
5403	4
5404	4
5405	5
5406	2
5407	2
5408	2
5409	4
5410	3
5411	3
5412	5
5413	2
5414	4
5415	0
5416	5
5417	1
5418	2
5419	5
5420	3
5421	3
5422	1
5423	4
5424	4
5425	2
5426	3
5427	1
5428	3
5429	5
5430	2
5431	2
5432	3
5433	1
5434	1
5435	1
5436	0
5437	3
5438	2
5439	2
5440	8
5441	3
5442	1
5443	3
5444	1
5445	1
5446	1
5447	1
5448	4
5449	3
5450	2
5451	0
5452	1
5453	2
5454	2
5455	1
5456	3
5457	0
5458	1
5459	4
5460	2
5461	5
5462	3
5463	2
5464	2
5465	5
5466	5
5467	1
5468	3
5469	5
5470	4
5471	2
5472	4
5473	5
5474	2
5475	4
5476	4
5477	5
5478	3
5479	4
5480	4
5481	2
5482	2
5483	3
5484	0
5485	2
5486	2
5487	4
5488	3
5489	2
5490	2
5491	6
5492	5
5493	3
5494	7
5495	1
5496	4
5497	5
5498	3
5499	3
5500	4
5501	5
5502	7
5503	4
5504	5
5505	1
5506	2
5507	1
5508	0
5509	3
5510	4
5511	3
5512	1
5513	4
5514	5
5515	2
5516	1
5517	0
5518	3
5519	1
5520	5
5521	2
5522	2
5523	2
5524	0
5525	1
5526	4
5527	3
5528	1
5529	1
5530	1
5531	2
5532	4
5533	2
5534	1
5535	1
5536	3
5537	7
5538	2
5539	1
5540	1
5541	4
5542	2
5543	2
5544	2
5545	3
5546	2
5547	2
5548	3
5549	1
5550	3
5551	4
5552	3
5553	3
5554	3
5555	6
5556	5
5557	1
5558	5
5559	2
5560	2
5561	4
5562	4
5563	4
5564	3
5565	0
5566	6
5567	2
5568	2
5569	4
5570	3
5571	1
5572	3
5573	2
5574	6
5575	6
5576	3
5577	2
5578	2
5579	3
5580	2
5581	1
5582	1
5583	3
5584	3
5585	4
5586	5
5587	1
5588	4
5589	0
5590	1
5591	1
5592	0
5593	1
5594	1
5595	1
5596	1
5597	2
5598	6
5599	2
5600	2
5601	1
5602	4
5603	1
5604	1
5605	6
5606	5
5607	1
5608	4
5609	3
5610	7
5611	3
5612	7
5613	3
5614	4
5615	1
5616	3
5617	1
5618	4
5619	3
5620	4
5621	3
5622	0
5623	2
5624	5
5625	1
5626	3
5627	1
5628	2
5629	2
5630	1
5631	3
5632	7
5633	1
5634	4
5635	2
5636	5
5637	4
5638	1
5639	3
5640	2
5641	1
5642	2
5643	5
5644	3
5645	3
5646	1
5647	2
5648	3
5649	0
5650	2
5651	2
5652	1
5653	4
5654	3
5655	2
5656	2
5657	0
5658	4
5659	0
5660	2
5661	3
5662	0
5663	2
5664	3
5665	1
5666	1
5667	2
5668	2
5669	0
5670	3
5671	1
5672	1
5673	6
5674	3
5675	0
5676	2
5677	7
5678	2
5679	3
5680	5
5681	2
5682	1
5683	3
5684	2
5685	2
5686	3
5687	2
5688	1
5689	2
5690	2
5691	2
5692	5
5693	7
5694	4
5695	5
5696	4
5697	2
5698	6
5699	2
5700	2
5701	2
5702	5
5703	1
5704	4
5705	4
5706	4
5707	0
5708	1
5709	3
5710	1
5711	2
5712	1
5713	3
5714	2
5715	2
5716	2
5717	2
5718	3
5719	2
5720	4
5721	3
5722	0
5723	2
5724	1
5725	4
5726	0
5727	3
5728	2
5729	3
5730	5
5731	2
5732	5
5733	2
5734	1
5735	2
5736	2
5737	2
5738	2
5739	3
5740	5
5741	3
5742	2
5743	5
5744	1
5745	2
5746	6
5747	2
5748	3
5749	2
5750	4
5751	2
5752	1
5753	3
5754	4
5755	1
5756	4
5757	1
5758	3
5759	2
5760	4
5761	1
5762	2
5763	3
5764	2
5765	3
5766	6
5767	3
5768	6
5769	4
5770	5
5771	2
5772	4
5773	3
5774	3
5775	2
5776	3
5777	3
5778	2
5779	5
5780	4
5781	2
5782	2
5783	1
5784	2
5785	4
5786	4
5787	2
5788	6
5789	7
5790	4
5791	4
5792	4
5793	3
5794	0
5795	1
5796	2
5797	1
5798	2
5799	5
5800	3
5801	1
5802	2
5803	3
5804	1
5805	4
5806	3
5807	4
5808	1
5809	3
5810	2
5811	6
5812	4
5813	2
5814	1
5815	5
5816	4
5817	7
5818	0
5819	4
5820	5
5821	4
5822	3
5823	7
5824	2
5825	2
5826	2
5827	1
5828	2
5829	1
5830	2
5831	7
5832	7
5833	3
5834	4
5835	1
5836	3
5837	7
5838	2
5839	4
5840	6
5841	3
5842	3
5843	4
5844	2
5845	3
5846	5
5847	3
5848	3
5849	2
5850	4
5851	0
5852	3
5853	2
5854	3
5855	4
5856	4
5857	1
5858	2
5859	7
5860	5
5861	2
5862	2
5863	2
5864	2
5865	2
5866	5
5867	6
5868	2
5869	2
5870	3
5871	3
5872	2
5873	2
5874	0
5875	3
5876	3
5877	3
5878	7
5879	1
5880	4
5881	3
5882	1
5883	2
5884	2
5885	5
5886	3
5887	2
5888	1
5889	4
5890	3
5891	6
5892	4
5893	3
5894	3
5895	6
5896	5
5897	1
5898	4
5899	0
5900	4
5901	1
5902	2
5903	1
5904	2
5905	5
5906	2
5907	2
5908	0
5909	1
5910	2
5911	2
5912	5
5913	2
5914	3
5915	4
5916	7
5917	1
5918	2
5919	7
5920	5
5921	0
5922	2
5923	3
5924	3
5925	1
5926	0
5927	2
5928	5
5929	11
5930	4
5931	4
5932	3
5933	3
5934	5
5935	10
5936	5
5937	7
5938	4
5939	6
5940	4
5941	1
5942	5
5943	5
5944	2
5945	5
5946	6
5947	2
5948	2
5949	5
5950	5
5951	1
5952	4
5953	5
5954	5
5955	3
5956	1
5957	3
5958	4
5959	5
5960	3
5961	3
5962	3
5963	5
5964	2
5965	7
5966	3
5967	3
5968	5
5969	6
5970	1
5971	5
5972	3
5973	6
5974	6
5975	4
5976	1
5977	6
5978	2
5979	4
5980	5
5981	6
5982	1
5983	3
5984	5
5985	2
5986	2
5987	4
5988	6
5989	2
5990	2
5991	4
5992	4
5993	2
5994	2
5995	4
5996	7
5997	3
5998	0
5999	5
6000	4
6001	2
6002	3
6003	3
6004	4
6005	3
6006	1
6007	0
6008	3
6009	0
6010	2
6011	4
6012	1
6013	3
6014	3
6015	7
6016	3
6017	4
6018	2
6019	2
6020	1
6021	1
6022	1
6023	3
6024	1
6025	6
6026	0
6027	4
6028	2
6029	3
6030	2
6031	1
6032	5
6033	2
6034	1
6035	2
6036	3
6037	1
6038	1
6039	1
6040	2
6041	1
6042	1
6043	2
6044	2
6045	4
6046	1
6047	3
6048	0
6049	1
6050	5
6051	0
6052	4
6053	4
6054	1
6055	1
6056	0
6057	3
6058	1
6059	3
6060	2
6061	5
6062	1
6063	1
6064	1
6065	3
6066	0
6067	1
6068	2
6069	1
6070	2
6071	4
6072	2
6073	5
6074	2
6075	1
6076	2
6077	2
6078	1
6079	1
6080	0
6081	1
6082	3
6083	1
6084	0
6085	0
6086	2
6087	0
6088	3
6089	1
6090	4
6091	2
6092	4
6093	0
6094	0
6095	3
6096	2
6097	1
6098	0
6099	3
6100	3
6101	0
6102	3
6103	3
6104	1
6105	1
6106	1
6107	3
6108	5
6109	0
6110	3
6111	1
6112	3
6113	4
6114	1
6115	0
6116	2
6117	1
6118	0
6119	2
6120	2
6121	2
6122	1
6123	1
6124	2
6125	2
6126	2
6127	2
6128	1
6129	1
6130	3
6131	1
6132	2
6133	1
6134	3
6135	3
6136	1
6137	0
6138	2
6139	2
6140	1
6141	4
6142	1
6143	2
6144	2
6145	2
6146	5
6147	2
6148	1
6149	2
6150	2
6151	0
6152	2
6153	1
6154	1
6155	2
6156	2
6157	1
6158	1
6159	1
6160	4
6161	2
6162	4
6163	1
6164	1
6165	1
6166	3
6167	2
6168	1
6169	1
6170	1
6171	0
6172	1
6173	1
6174	0
6175	0
6176	1
6177	0
6178	1
6179	2
6180	3
6181	1
6182	2
6183	2
6184	1
6185	3
6186	1
6187	3
6188	0
6189	2
6190	0
6191	2
6192	0
6193	2
6194	0
6195	1
6196	2
6197	2
6198	1
6199	1
6200	2
6201	0
6202	0
6203	2
6204	2
6205	0
6206	1
6207	2
6208	2
6209	0
6210	2
6211	0
6212	0
6213	0
6214	1
6215	0
6216	0
6217	0
6218	1
6219	4
6220	2
6221	1
6222	3
6223	2
6224	1
6225	0
6226	0
6227	0
6228	1
6229	0
6230	1
6231	0
6232	0
6233	1
6234	1
6235	3
6236	0
6237	0
6238	0
6239	0
6240	0
6241	1
6242	1
6243	2
6244	2
6245	2
6246	1
6247	1
6248	1
6249	0
6250	1
6251	1
6252	1
6253	0
6254	2
6255	4
6256	1
6257	1
6258	1
6259	5
6260	1
6261	2
6262	1
6263	2
6264	1
6265	0
6266	0
6267	0
6268	0
6269	0
6270	2
6271	1
6272	2
6273	1
6274	0
6275	0
6276	0
6277	0
6278	0
6279	2
6280	0
6281	3
6282	2
6283	0
6284	1
6285	0
6286	0
6287	0
6288	0
6289	0
6290	1
6291	0
6292	1
6293	0
6294	0
6295	0
6296	0
6297	0
6298	0
6299	0
6300	0
6301	0
6302	3
6303	1
6304	0
6305	0
6306	0
6307	1
6308	3
6309	0
6310	2
6311	0
6312	1
6313	0
6314	1
6315	0
6316	0
6317	0
6318	0
6319	0
6320	2
6321	0
6322	1
6323	3
6324	0
6325	0
6326	0
6327	0
6328	0
6329	1
6330	0
6331	1
6332	1
6333	1
6334	0
6335	0
6336	0
6337	2
6338	0
6339	0
6340	1
6341	0
6342	1
6343	0
6344	0
6345	1
6346	0
6347	1
6348	0
6349	0
6350	1
6351	0
6352	0
6353	0
6354	0
6355	1
6356	0
6357	0
6358	0
6359	2
6360	0
6361	3
6362	1
6363	1
6364	2
6365	0
6366	2
6367	1
6368	1
6369	1
6370	0
6371	0
6372	1
6373	0
6374	1
6375	0
6376	0
6377	1
6378	0
6379	0
6380	1
6381	0
6382	0
6383	0
6384	1
6385	0
6386	0
6387	1
6388	0
6389	0
6390	0
6391	1
6392	0
6393	0
6394	0
6395	1
6396	0
6397	0
6398	1
6399	0
6400	0
6401	0
6402	0
6403	0
6404	1
6405	0
6406	1
6407	0
6408	0
6409	2
6410	1
6411	0
6412	0
6413	4
6414	0
6415	1
6416	0
6417	0
6418	0
6419	1
6420	0
6421	3
6422	1
6423	0
6424	1
6425	0
6426	1
6427	0
6428	0
6429	0
6430	0
6431	0
6432	0
6433	0
6434	0
6435	0
6436	0
6437	0
6438	0
6439	0
6440	1
6441	1
6442	0
6443	0
6444	0
6445	1
6446	2
6447	2
6448	0
6449	0
6450	0
6451	0
6452	0
6453	0
6454	0
6455	0
6456	0
6457	0
6458	0
6459	0
6460	0
6461	1
6462	0
6463	1
6464	1
6465	0
6466	1
6467	2
6468	2
6469	0
6470	0
6471	0
6472	0
6473	0
6474	1
6475	2
6476	0
6477	1
6478	0
6479	0
6480	3
6481	1
6482	0
6483	0
6484	1
6485	1
6486	1
6487	0
6488	1
6489	0
6490	0
6491	0
6492	1
6493	1
6494	0
6495	1
6496	1
6497	0
6498	0
6499	0
6500	0
6501	0
6502	0
6503	0
6504	0
6505	1
6506	0
6507	0
6508	0
6509	0
6510	0
6511	1
6512	0
6513	0
6514	0
6515	0
6516	0
6517	0
6518	0
6519	0
6520	0
6521	0
6522	0
6523	0
6524	0
6525	0
6526	0
6527	1
6528	0
6529	0
6530	0
6531	0
6532	0
6533	0
6534	0
6535	0
6536	0
6537	1
6538	1
6539	0
6540	0
6541	1
6542	0
6543	0
6544	0
6545	0
6546	0
6547	0
6548	0
6549	0
6550	0
6551	0
6552	4
6553	8
6554	16
6555	19
6556	49
6557	65
6558	89
6559	58
6560	89
6561	76
6562	65
6563	32
6564	19
6565	23
6566	6
6567	3
6568	3
6569	0
6570	0
6571	1
6572	0
6573	0
6574	0
6575	0
6576	0
6577	0
6578	0
6579	0
6580	0
6581	0
6582	0
6583	0
6584	0
6585	0
6586	0
6587	0
6588	0
6589	0
6590	0
6591	0
6592	0
6593	0
6594	0
6595	0
6596	0
6597	1
6598	0
6599	0
6600	0
6601	0
6602	0
6603	0
6604	0
6605	1
6606	0
6607	0
6608	0
6609	0
6610	0
6611	0
6612	0
6613	0
6614	0
6615	0
6616	0
6617	0
6618	1
6619	0
6620	0
6621	0
6622	0
6623	0
6624	0
6625	0
6626	0
6627	0
6628	0
6629	0
6630	0
6631	0
6632	0
6633	0
6634	0
6635	0
6636	0
6637	0
6638	0
6639	0
6640	0
6641	0
6642	0
6643	0
6644	0
6645	1
6646	0
6647	0
6648	0
6649	0
6650	0
6651	0
6652	0
6653	0
6654	0
6655	0
6656	0
6657	1
6658	0
6659	0
6660	0
6661	0
6662	0
6663	0
6664	0
6665	0
6666	0
6667	0
6668	0
6669	0
6670	0
6671	0
6672	0
6673	0
6674	1
6675	0
6676	0
6677	0
6678	0
6679	0
6680	0
6681	0
6682	0
6683	0
6684	0
6685	0
6686	0
6687	0
6688	0
6689	0
6690	0
6691	0
6692	0
6693	0
6694	0
6695	0
6696	0
6697	0
6698	0
6699	0
6700	0
6701	0
6702	0
6703	0
6704	0
6705	0
6706	0
6707	0
6708	0
6709	0
6710	0
6711	0
6712	0
6713	0
6714	0
6715	0
6716	0
6717	1
6718	0
6719	1
6720	0
6721	0
6722	0
6723	0
6724	0
6725	0
6726	0
6727	0
6728	0
6729	0
6730	0
6731	0
6732	0
6733	0
6734	0
6735	0
6736	0
6737	0
6738	0
6739	0
6740	0
6741	0
6742	0
6743	0
6744	0
6745	0
6746	0
6747	0
6748	0
6749	0
6750	0
6751	0
6752	0
6753	0
6754	0
6755	1
6756	0
6757	0
6758	0
6759	0
6760	1
6761	0
6762	0
6763	0
6764	0
6765	0
6766	0
6767	0
6768	0
6769	0
6770	0
6771	0
6772	0
6773	0
6774	0
6775	0
6776	0
6777	0
6778	0
6779	0
6780	0
6781	0
6782	0
6783	0
6784	0
6785	0
6786	0
6787	0
6788	0
6789	0
6790	0
6791	0
6792	0
6793	0
6794	0
6795	0
6796	0
6797	0
6798	0
6799	1
6800	0
6801	0
6802	0
6803	0
6804	0
6805	0
6806	0
6807	0
6808	0
6809	0
6810	0
6811	0
6812	0
6813	0
6814	0
6815	0
6816	0
6817	0
6818	0
6819	0
6820	0
6821	0
6822	1
6823	0
6824	0
6825	0
6826	0
6827	0
6828	0
6829	1
6830	0
6831	0
6832	0
6833	0
6834	0
6835	0
6836	0
6837	0
6838	0
6839	0
6840	1
6841	0
6842	2
6843	1
6844	0
6845	1
6846	1
6847	0
6848	0
6849	0
6850	0
6851	1
6852	0
6853	0
6854	0
6855	0
6856	0
6857	0
6858	0
6859	0
6860	0
6861	0
6862	0
6863	0
6864	0
6865	0
6866	0
6867	0
6868	0
6869	0
6870	0
6871	0
6872	0
6873	0
6874	0
6875	0
6876	0
6877	0
6878	0
6879	0
6880	0
6881	0
6882	1
6883	0
6884	0
6885	0
6886	0
6887	0
6888	0
6889	0
6890	0
6891	0
6892	0
6893	0
6894	0
6895	0
6896	0
6897	0
6898	0
6899	0
6900	0
6901	0
6902	0
6903	0
6904	0
6905	0
6906	0
6907	0
6908	0
6909	0
6910	0
6911	0
6912	0
6913	0
6914	0
6915	0
6916	0
6917	0
6918	0
6919	0
6920	0
6921	0
6922	0
6923	0
6924	0
6925	0
6926	0
6927	0
6928	0
6929	0
6930	0
6931	0
6932	0
6933	0
6934	0
6935	0
6936	0
6937	0
6938	0
6939	0
6940	0
6941	0
6942	0
6943	0
6944	0
6945	0
6946	0
6947	0
6948	0
6949	0
6950	0
6951	0
6952	0
6953	0
6954	0
6955	0
6956	0
6957	0
6958	0
6959	0
6960	0
6961	0
6962	0
6963	0
6964	1
6965	0
6966	0
6967	0
6968	0
6969	1
6970	0
6971	0
6972	0
6973	1
6974	0
6975	0
6976	0
6977	0
6978	0
6979	0
6980	0
6981	0
6982	0
6983	0
6984	0
6985	0
6986	0
6987	0
6988	1
6989	0
6990	0
6991	0
6992	0
6993	0
6994	0
6995	0
6996	0
6997	0
6998	0
6999	0
7000	0
7001	1
7002	0
7003	0
7004	0
7005	0
7006	0
7007	0
7008	0
7009	0
7010	0
7011	0
7012	0
7013	0
7014	0
7015	0
7016	0
7017	0
7018	0
7019	0
7020	0
7021	1
7022	0
7023	0
7024	0
7025	0
7026	0
7027	0
7028	0
7029	0
7030	0
7031	0
7032	0
7033	0
7034	0
7035	1
7036	1
7037	0
7038	0
7039	0
7040	0
7041	0
7042	0
7043	0
7044	0
7045	0
7046	0
7047	0
7048	0
7049	0
7050	0
7051	0
7052	0
7053	0
7054	0
7055	0
7056	0
7057	0
7058	0
7059	0
7060	0
7061	0
7062	0
7063	1
7064	0
7065	0
7066	0
7067	0
7068	0
7069	0
7070	0
7071	0
7072	0
7073	0
7074	0
7075	0
7076	0
7077	0
7078	0
7079	0
7080	0
7081	0
7082	0
7083	0
7084	0
7085	0
7086	0
7087	0
7088	0
7089	0
7090	0
7091	0
7092	0
7093	0
7094	0
7095	0
7096	0
7097	0
7098	0
7099	0
7100	0
7101	0
7102	0
7103	0
7104	0
7105	0
7106	0
7107	0
7108	0
7109	0
7110	0
7111	0
7112	0
7113	0
7114	0
7115	0
7116	0
7117	0
7118	0
7119	0
7120	0
7121	0
7122	0
7123	0
7124	0
7125	0
7126	0
7127	0
7128	0
7129	0
7130	0
7131	0
7132	0
7133	0
7134	0
7135	0
7136	0
7137	0
7138	0
7139	0
7140	0
7141	0
7142	0
7143	0
7144	0
7145	0
7146	0
7147	0
7148	0
7149	0
7150	0
7151	0
7152	0
7153	0
7154	0
7155	0
7156	0
7157	0
7158	0
7159	0
7160	0
7161	0
7162	0
7163	0
7164	0
7165	0
7166	0
7167	0
7168	0
7169	0
7170	0
7171	0
7172	0
7173	0
7174	0
7175	0
7176	0
7177	0
7178	0
7179	0
7180	0
7181	0
7182	0
7183	1
7184	0
7185	0
7186	0
7187	0
7188	0
7189	0
7190	0
7191	0
7192	0
7193	0
7194	0
7195	0
7196	0
7197	0
7198	0
7199	0
7200	0
7201	0
7202	0
7203	0
7204	0
7205	0
7206	0
7207	0
7208	0
7209	0
7210	0
7211	0
7212	0
7213	0
7214	0
7215	0
7216	0
7217	0
7218	0
7219	0
7220	0
7221	0
7222	0
7223	0
7224	0
7225	0
7226	0
7227	0
7228	0
7229	0
7230	0
7231	0
7232	0
7233	0
7234	0
7235	0
7236	0
7237	0
7238	0
7239	0
7240	0
7241	0
7242	0
7243	0
7244	0
7245	0
7246	0
7247	0
7248	0
7249	0
7250	0
7251	0
7252	0
7253	0
7254	0
7255	0
7256	0
7257	0
7258	0
7259	0
7260	0
7261	0
7262	0
7263	0
7264	0
7265	0
7266	0
7267	0
7268	0
7269	0
7270	0
7271	0
7272	0
7273	0
7274	0
7275	0
7276	0
7277	0
7278	0
7279	0
7280	0
7281	0
7282	0
7283	0
7284	0
7285	0
7286	0
7287	0
7288	0
7289	0
7290	0
7291	0
7292	0
7293	0
7294	1
7295	0
7296	0
7297	0
7298	0
7299	0
7300	0
7301	0
7302	0
7303	0
7304	0
7305	0
7306	0
7307	0
7308	0
7309	0
7310	0
7311	0
7312	0
7313	0
7314	0
7315	0
7316	0
7317	0
7318	0
7319	0
7320	0
7321	0
7322	0
7323	1
7324	0
7325	0
7326	0
7327	0
7328	0
7329	0
7330	0
7331	0
7332	0
7333	0
7334	0
7335	0
7336	0
7337	0
7338	0
7339	0
7340	0
7341	0
7342	0
7343	0
7344	0
7345	0
7346	0
7347	0
7348	0
7349	0
7350	0
7351	0
7352	0
7353	0
7354	0
7355	0
7356	0
7357	0
7358	0
7359	0
7360	0
7361	0
7362	0
7363	0
7364	0
7365	0
7366	0
7367	0
7368	0
7369	0
7370	0
7371	0
7372	0
7373	0
7374	0
7375	0
7376	0
7377	0
7378	0
7379	0
7380	0
7381	0
7382	0
7383	0
7384	0
7385	0
7386	0
7387	0
7388	0
7389	0
7390	0
7391	0
7392	0
7393	0
7394	0
7395	0
7396	0
7397	0
7398	0
7399	0
7400	0
7401	0
7402	0
7403	0
7404	0
7405	0
7406	0
7407	0
7408	0
7409	0
7410	0
7411	0
7412	0
7413	0
7414	0
7415	0
7416	0
7417	0
7418	0
7419	0
7420	0
7421	0
7422	0
7423	0
7424	0
7425	0
7426	0
7427	0
7428	0
7429	0
7430	1
7431	0
7432	0
7433	0
7434	0
7435	0
7436	0
7437	0
7438	0
7439	0
7440	0
7441	0
7442	0
7443	0
7444	0
7445	0
7446	0
7447	0
7448	0
7449	0
7450	0
7451	0
7452	0
7453	0
7454	0
7455	0
7456	0
7457	0
7458	0
7459	0
7460	0
7461	0
7462	0
7463	0
7464	0
7465	0
7466	0
7467	0
7468	0
7469	0
7470	0
7471	0
7472	0
7473	0
7474	0
7475	0
7476	0
7477	0
7478	0
7479	0
7480	0
7481	0
7482	0
7483	0
7484	0
7485	0
7486	0
7487	0
7488	0
7489	0
7490	0
7491	1
7492	0
7493	0
7494	1
7495	0
7496	0
7497	0
7498	0
7499	0
7500	0
7501	0
7502	0
7503	0
7504	0
7505	0
7506	0
7507	0
7508	0
7509	0
7510	0
7511	0
7512	0
7513	0
7514	0
7515	0
7516	0
7517	0
7518	0
7519	0
7520	1
7521	0
7522	0
7523	0
7524	0
7525	0
7526	0
7527	0
7528	0
7529	0
7530	0
7531	0
7532	0
7533	0
7534	0
7535	0
7536	0
7537	0
7538	0
7539	0
7540	0
7541	0
7542	0
7543	0
7544	0
7545	0
7546	0
7547	0
7548	0
7549	0
7550	0
7551	0
7552	0
7553	0
7554	0
7555	0
7556	0
7557	0
7558	0
7559	0
7560	0
7561	0
7562	0
7563	0
7564	0
7565	0
7566	0
7567	0
7568	0
7569	0
7570	0
7571	0
7572	0
7573	0
7574	0
7575	0
7576	0
7577	0
7578	0
7579	0
7580	0
7581	0
7582	0
7583	0
7584	0
7585	0
7586	0
7587	0
7588	0
7589	0
7590	0
7591	0
7592	0
7593	0
7594	0
7595	0
7596	0
7597	0
7598	0
7599	0
7600	0
7601	0
7602	0
7603	0
7604	0
7605	0
7606	0
7607	0
7608	0
7609	0
7610	0
7611	0
7612	0
7613	0
7614	0
7615	0
7616	0
7617	1
7618	0
7619	0
7620	0
7621	0
7622	0
7623	0
7624	0
7625	0
7626	0
7627	0
7628	0
7629	0
7630	0
7631	0
7632	0
7633	0
7634	0
7635	0
7636	0
7637	0
7638	0
7639	0
7640	0
7641	0
7642	0
7643	0
7644	0
7645	0
7646	0
7647	0
7648	0
7649	0
7650	0
7651	0
7652	0
7653	0
7654	0
7655	0
7656	0
7657	0
7658	0
7659	0
7660	0
7661	0
7662	0
7663	0
7664	0
7665	0
7666	0
7667	0
7668	0
7669	0
7670	0
7671	0
7672	0
7673	0
7674	0
7675	0
7676	0
7677	0
7678	0
7679	0
7680	0
7681	0
7682	0
7683	0
7684	0
7685	0
7686	0
7687	0
7688	0
7689	0
7690	0
7691	0
7692	0
7693	0
7694	0
7695	0
7696	0
7697	0
7698	0
7699	0
7700	0
7701	0
7702	0
7703	0
7704	0
7705	0
7706	0
7707	0
7708	0
7709	0
7710	0
7711	0
7712	0
7713	0
7714	0
7715	0
7716	0
7717	0
7718	0
7719	0
7720	0
7721	0
7722	0
7723	0
7724	0
7725	0
7726	0
7727	0
7728	0
7729	0
7730	0
7731	0
7732	0
7733	0
7734	0
7735	0
7736	0
7737	0
7738	0
7739	0
7740	0
7741	0
7742	0
7743	0
7744	0
7745	0
7746	0
7747	0
7748	0
7749	0
7750	0
7751	0
7752	0
7753	0
7754	0
7755	0
7756	0
7757	0
7758	0
7759	0
7760	0
7761	0
7762	0
7763	0
7764	0
7765	0
7766	0
7767	1
7768	0
7769	0
7770	0
7771	0
7772	0
7773	0
7774	0
7775	0
7776	0
7777	0
7778	0
7779	0
7780	0
7781	0
7782	0
7783	0
7784	0
7785	0
7786	0
7787	0
7788	0
7789	0
7790	0
7791	0
7792	0
7793	0
7794	0
7795	0
7796	0
7797	0
7798	0
7799	0
7800	0
7801	0
7802	0
7803	0
7804	0
7805	0
7806	0
7807	0
7808	0
7809	1
7810	0
7811	0
7812	0
7813	0
7814	0
7815	0
7816	0
7817	0
7818	0
7819	0
7820	0
7821	0
7822	0
7823	0
7824	0
7825	0
7826	0
7827	0
7828	0
7829	0
7830	0
7831	0
7832	0
7833	0
7834	0
7835	0
7836	0
7837	0
7838	0
7839	0
7840	0
7841	0
7842	0
7843	0
7844	0
7845	0
7846	0
7847	0
7848	0
7849	0
7850	0
7851	0
7852	0
7853	0
7854	0
7855	0
7856	0
7857	0
7858	0
7859	0
7860	0
7861	0
7862	0
7863	0
7864	0
7865	0
7866	0
7867	0
7868	0
7869	0
7870	0
7871	0
7872	0
7873	0
7874	0
7875	0
7876	0
7877	0
7878	0
7879	0
7880	0
7881	0
7882	0
7883	0
7884	0
7885	0
7886	0
7887	0
7888	0
7889	0
7890	0
7891	0
7892	0
7893	0
7894	0
7895	0
7896	0
7897	0
7898	0
7899	0
7900	0
7901	0
7902	0
7903	0
7904	0
7905	0
7906	0
7907	0
7908	0
7909	0
7910	0
7911	0
7912	0
7913	0
7914	0
7915	0
7916	0
7917	0
7918	0
7919	0
7920	0
7921	0
7922	0
7923	0
7924	0
7925	0
7926	0
7927	0
7928	0
7929	0
7930	0
7931	0
7932	0
7933	0
7934	0
7935	0
7936	0
7937	0
7938	0
7939	0
7940	0
7941	1
7942	0
7943	0
7944	0
7945	0
7946	0
7947	0
7948	0
7949	0
7950	0
7951	0
7952	0
7953	0
7954	1
7955	0
7956	0
7957	0
7958	0
7959	0
7960	0
7961	0
7962	0
7963	0
7964	0
7965	0
7966	0
7967	0
7968	0
7969	0
7970	0
7971	0
7972	1
7973	0
7974	0
7975	0
7976	0
7977	0
7978	0
7979	0
7980	0
7981	0
7982	0
7983	0
7984	0
7985	0
7986	0
7987	0
7988	0
7989	0
7990	0
7991	0
7992	0
7993	0
7994	0
7995	0
7996	0
7997	0
7998	0
7999	0
8000	0
8001	0
8002	0
8003	0
8004	0
8005	0
8006	0
8007	0
8008	0
8009	0
8010	0
8011	0
8012	0
8013	0
8014	0
8015	0
8016	0
8017	0
8018	0
8019	0
8020	0
8021	0
8022	0
8023	0
8024	0
8025	0
8026	0
8027	0
8028	0
8029	0
8030	0
8031	0
8032	0
8033	0
8034	0
8035	0
8036	0
8037	0
8038	0
8039	0
8040	0
8041	0
8042	0
8043	0
8044	0
8045	0
8046	0
8047	0
8048	0
8049	0
8050	0
8051	0
8052	0
8053	0
8054	0
8055	0
8056	0
8057	0
8058	0
8059	0
8060	1
8061	0
8062	0
8063	0
8064	0
8065	0
8066	0
8067	0
8068	0
8069	0
8070	0
8071	0
8072	0
8073	0
8074	0
8075	0
8076	0
8077	0
8078	0
8079	0
8080	0
8081	0
8082	0
8083	0
8084	0
8085	0
8086	0
8087	0
8088	0
8089	0
8090	0
8091	0
8092	0
8093	0
8094	0
8095	0
8096	0
8097	0
8098	0
8099	0
8100	0
8101	0
8102	0
8103	0
8104	0
8105	0
8106	0
8107	0
8108	0
8109	0
8110	0
8111	0
8112	0
8113	0
8114	0
8115	0
8116	0
8117	0
8118	0
8119	0
8120	0
8121	0
8122	0
8123	0
8124	0
8125	0
8126	0
8127	0
8128	0
8129	0
8130	0
8131	0
8132	0
8133	0
8134	0
8135	0
8136	0
8137	0
8138	0
8139	0
8140	0
8141	0
8142	0
8143	0
8144	0
8145	0
8146	0
8147	0
8148	0
8149	0
8150	0
8151	0
8152	0
8153	0
8154	0
8155	0
8156	0
8157	0
8158	0
8159	0
8160	0
8161	0
8162	0
8163	0
8164	0
8165	0
8166	0
8167	0
8168	0
8169	0
8170	0
8171	0
8172	0
8173	0
8174	0
8175	0
8176	0
8177	0
8178	0
8179	0
8180	0
8181	0
8182	0
8183	0
8184	0
8185	0
8186	0
8187	0
8188	0
8189	0
8190	0
8191	0
