0	0
1	0
2	0
3	0
4	0
5	0
6	0
7	0
8	0
9	0
10	0
11	0
12	0
13	0
14	0
15	0
16	0
17	0
18	0
19	0
20	0
21	0
22	0
23	0
24	0
25	0
26	0
27	0
28	0
29	0
30	0
31	0
32	0
33	0
34	0
35	0
36	0
37	0
38	0
39	0
40	0
41	0
42	0
43	0
44	0
45	0
46	0
47	0
48	0
49	0
50	0
51	0
52	0
53	0
54	0
55	0
56	0
57	0
58	0
59	0
60	0
61	0
62	0
63	0
64	0
65	0
66	0
67	0
68	0
69	0
70	0
71	0
72	0
73	0
74	0
75	0
76	0
77	0
78	0
79	0
80	0
81	0
82	0
83	0
84	0
85	0
86	0
87	0
88	0
89	0
90	0
91	0
92	0
93	0
94	0
95	0
96	0
97	0
98	0
99	0
100	0
101	0
102	0
103	0
104	0
105	0
106	0
107	0
108	0
109	0
110	0
111	0
112	0
113	0
114	0
115	0
116	0
117	0
118	68
119	287
120	453
121	621
122	614
123	601
124	609
125	615
126	593
127	648
128	607
129	607
130	606
131	562
132	578
133	585
134	580
135	618
136	598
137	553
138	559
139	575
140	597
141	571
142	565
143	570
144	556
145	570
146	513
147	584
148	586
149	549
150	544
151	502
152	569
153	541
154	533
155	532
156	522
157	528
158	525
159	540
160	495
161	512
162	545
163	567
164	522
165	528
166	523
167	515
168	524
169	499
170	521
171	510
172	502
173	522
174	511
175	511
176	510
177	540
178	484
179	533
180	493
181	515
182	516
183	460
184	504
185	532
186	482
187	493
188	487
189	468
190	499
191	483
192	475
193	471
194	504
195	511
196	514
197	495
198	496
199	505
200	497
201	497
202	498
203	499
204	470
205	471
206	482
207	475
208	483
209	472
210	488
211	532
212	474
213	472
214	467
215	476
216	481
217	457
218	475
219	484
220	496
221	465
222	503
223	464
224	496
225	442
226	491
227	461
228	491
229	467
230	502
231	483
232	499
233	484
234	467
235	421
236	426
237	480
238	502
239	463
240	494
241	489
242	468
243	468
244	464
245	461
246	452
247	502
248	444
249	516
250	465
251	484
252	438
253	481
254	498
255	506
256	493
257	496
258	488
259	433
260	485
261	448
262	467
263	478
264	493
265	483
266	489
267	454
268	502
269	501
270	496
271	435
272	478
273	489
274	488
275	452
276	450
277	501
278	482
279	453
280	473
281	516
282	476
283	471
284	489
285	515
286	457
287	499
288	470
289	473
290	516
291	536
292	478
293	462
294	476
295	469
296	485
297	464
298	474
299	459
300	453
301	467
302	471
303	453
304	492
305	505
306	460
307	529
308	484
309	467
310	460
311	478
312	485
313	474
314	488
315	431
316	463
317	496
318	418
319	442
320	472
321	475
322	495
323	468
324	467
325	455
326	445
327	444
328	506
329	436
330	470
331	452
332	470
333	450
334	473
335	447
336	464
337	438
338	509
339	488
340	462
341	515
342	480
343	473
344	444
345	448
346	461
347	531
348	494
349	459
350	461
351	449
352	480
353	436
354	481
355	444
356	505
357	434
358	488
359	439
360	517
361	488
362	478
363	518
364	502
365	496
366	486
367	441
368	504
369	520
370	474
371	491
372	458
373	512
374	496
375	483
376	520
377	512
378	505
379	524
380	574
381	615
382	739
383	901
384	1031
385	916
386	736
387	624
388	515
389	511
390	455
391	481
392	460
393	471
394	481
395	474
396	487
397	512
398	452
399	502
400	480
401	536
402	483
403	491
404	474
405	499
406	520
407	475
408	466
409	469
410	442
411	488
412	508
413	465
414	469
415	506
416	483
417	483
418	508
419	495
420	592
421	496
422	552
423	504
424	512
425	482
426	482
427	475
428	510
429	430
430	461
431	488
432	450
433	483
434	487
435	483
436	484
437	469
438	478
439	477
440	469
441	511
442	514
443	472
444	449
445	474
446	493
447	459
448	483
449	516
450	508
451	443
452	467
453	486
454	495
455	476
456	511
457	489
458	520
459	481
460	479
461	513
462	472
463	473
464	468
465	432
466	491
467	477
468	483
469	462
470	467
471	449
472	493
473	512
474	519
475	446
476	506
477	473
478	490
479	448
480	474
481	473
482	490
483	470
484	477
485	494
486	518
487	493
488	500
489	514
490	505
491	493
492	477
493	485
494	507
495	497
496	523
497	494
498	488
499	485
500	516
501	512
502	498
503	470
504	475
505	522
506	474
507	500
508	537
509	508
510	498
511	509
512	474
513	479
514	549
515	488
516	517
517	532
518	523
519	532
520	560
521	541
522	538
523	581
524	514
525	525
526	536
527	511
528	535
529	559
530	544
531	553
532	560
533	510
534	560
535	514
536	547
537	546
538	581
539	544
540	592
541	542
542	579
543	579
544	601
545	625
546	565
547	606
548	611
549	620
550	616
551	573
552	592
553	611
554	620
555	586
556	622
557	621
558	636
559	636
560	617
561	686
562	651
563	660
564	604
565	661
566	607
567	581
568	626
569	634
570	618
571	645
572	672
573	636
574	627
575	617
576	576
577	608
578	593
579	607
580	608
581	592
582	584
583	571
584	620
585	628
586	599
587	599
588	588
589	600
590	571
591	582
592	588
593	535
594	565
595	584
596	569
597	522
598	544
599	567
600	564
601	559
602	571
603	529
604	609
605	547
606	573
607	577
608	538
609	631
610	502
611	604
612	634
613	560
614	593
615	583
616	578
617	583
618	595
619	578
620	570
621	618
622	635
623	590
624	632
625	558
626	607
627	596
628	656
629	608
630	612
631	650
632	633
633	557
634	583
635	625
636	600
637	589
638	588
639	610
640	643
641	568
642	672
643	603
644	631
645	599
646	602
647	620
648	630
649	617
650	607
651	569
652	602
653	581
654	604
655	577
656	581
657	611
658	549
659	567
660	600
661	589
662	555
663	586
664	553
665	549
666	566
667	569
668	519
669	513
670	549
671	586
672	522
673	530
674	493
675	577
676	520
677	557
678	547
679	544
680	524
681	547
682	502
683	583
684	551
685	514
686	464
687	513
688	531
689	500
690	516
691	508
692	499
693	508
694	486
695	491
696	521
697	528
698	494
699	499
700	481
701	511
702	534
703	483
704	524
705	523
706	514
707	514
708	511
709	516
710	485
711	478
712	510
713	465
714	516
715	479
716	469
717	495
718	528
719	468
720	536
721	526
722	502
723	479
724	482
725	514
726	480
727	494
728	489
729	472
730	509
731	468
732	499
733	506
734	517
735	543
736	460
737	484
738	475
739	481
740	505
741	506
742	493
743	467
744	472
745	506
746	512
747	467
748	455
749	474
750	491
751	513
752	484
753	477
754	502
755	471
756	513
757	460
758	502
759	496
760	496
761	509
762	482
763	504
764	496
765	470
766	474
767	479
768	446
769	489
770	489
771	476
772	466
773	491
774	514
775	474
776	468
777	469
778	465
779	506
780	510
781	460
782	474
783	525
784	508
785	497
786	476
787	470
788	475
789	500
790	445
791	470
792	440
793	483
794	459
795	550
796	438
797	474
798	438
799	479
800	475
801	438
802	453
803	470
804	482
805	498
806	463
807	453
808	482
809	462
810	474
811	500
812	451
813	483
814	472
815	450
816	518
817	441
818	470
819	478
820	482
821	499
822	458
823	514
824	442
825	505
826	467
827	510
828	501
829	467
830	482
831	466
832	458
833	452
834	485
835	460
836	466
837	464
838	468
839	458
840	453
841	509
842	473
843	462
844	493
845	482
846	458
847	460
848	476
849	430
850	464
851	448
852	456
853	467
854	495
855	447
856	447
857	464
858	483
859	453
860	404
861	461
862	493
863	446
864	488
865	442
866	478
867	496
868	453
869	460
870	428
871	493
872	485
873	494
874	472
875	484
876	446
877	478
878	458
879	435
880	483
881	412
882	460
883	460
884	469
885	464
886	460
887	445
888	471
889	501
890	462
891	489
892	457
893	456
894	442
895	469
896	484
897	490
898	487
899	425
900	475
901	488
902	479
903	464
904	457
905	443
906	496
907	466
908	493
909	493
910	480
911	460
912	458
913	489
914	478
915	469
916	454
917	465
918	458
919	457
920	468
921	449
922	444
923	438
924	470
925	457
926	437
927	470
928	499
929	463
930	502
931	459
932	426
933	472
934	462
935	455
936	471
937	468
938	460
939	458
940	431
941	473
942	477
943	423
944	418
945	475
946	458
947	460
948	434
949	421
950	468
951	453
952	406
953	448
954	469
955	479
956	418
957	427
958	429
959	460
960	433
961	411
962	439
963	437
964	451
965	421
966	431
967	476
968	408
969	429
970	420
971	417
972	432
973	418
974	438
975	414
976	439
977	408
978	424
979	401
980	401
981	421
982	451
983	429
984	403
985	424
986	421
987	413
988	406
989	410
990	404
991	420
992	424
993	432
994	398
995	415
996	451
997	429
998	407
999	378
1000	387
1001	411
1002	419
1003	409
1004	432
1005	430
1006	372
1007	397
1008	429
1009	410
1010	434
1011	390
1012	417
1013	441
1014	420
1015	421
1016	424
1017	421
1018	412
1019	392
1020	415
1021	393
1022	421
1023	438
1024	412
1025	422
1026	420
1027	391
1028	406
1029	417
1030	394
1031	403
1032	408
1033	382
1034	415
1035	435
1036	404
1037	429
1038	451
1039	396
1040	411
1041	400
1042	406
1043	380
1044	387
1045	414
1046	397
1047	394
1048	432
1049	394
1050	393
1051	420
1052	412
1053	366
1054	441
1055	410
1056	404
1057	442
1058	373
1059	387
1060	406
1061	358
1062	409
1063	373
1064	383
1065	424
1066	436
1067	403
1068	419
1069	399
1070	406
1071	369
1072	431
1073	449
1074	405
1075	401
1076	423
1077	419
1078	401
1079	395
1080	400
1081	383
1082	375
1083	404
1084	359
1085	367
1086	393
1087	392
1088	391
1089	439
1090	414
1091	373
1092	390
1093	388
1094	399
1095	393
1096	367
1097	433
1098	404
1099	406
1100	399
1101	423
1102	403
1103	384
1104	416
1105	387
1106	376
1107	428
1108	415
1109	426
1110	418
1111	424
1112	399
1113	419
1114	415
1115	414
1116	403
1117	419
1118	405
1119	445
1120	430
1121	394
1122	446
1123	424
1124	389
1125	425
1126	402
1127	418
1128	393
1129	436
1130	433
1131	374
1132	427
1133	376
1134	424
1135	421
1136	381
1137	415
1138	393
1139	406
1140	395
1141	462
1142	406
1143	421
1144	449
1145	414
1146	415
1147	424
1148	387
1149	449
1150	412
1151	392
1152	444
1153	438
1154	439
1155	424
1156	415
1157	475
1158	426
1159	435
1160	438
1161	423
1162	453
1163	448
1164	428
1165	427
1166	410
1167	411
1168	430
1169	439
1170	426
1171	444
1172	388
1173	443
1174	478
1175	433
1176	410
1177	449
1178	438
1179	453
1180	423
1181	465
1182	418
1183	436
1184	392
1185	438
1186	395
1187	449
1188	442
1189	439
1190	461
1191	417
1192	440
1193	459
1194	414
1195	429
1196	455
1197	496
1198	502
1199	444
1200	451
1201	448
1202	455
1203	433
1204	439
1205	452
1206	462
1207	456
1208	427
1209	456
1210	447
1211	470
1212	436
1213	508
1214	489
1215	468
1216	461
1217	455
1218	482
1219	422
1220	434
1221	455
1222	467
1223	468
1224	454
1225	463
1226	476
1227	476
1228	501
1229	408
1230	483
1231	470
1232	482
1233	496
1234	436
1235	457
1236	481
1237	489
1238	505
1239	441
1240	466
1241	502
1242	529
1243	543
1244	474
1245	498
1246	485
1247	495
1248	448
1249	489
1250	475
1251	468
1252	444
1253	490
1254	485
1255	465
1256	518
1257	483
1258	510
1259	490
1260	490
1261	489
1262	487
1263	511
1264	537
1265	462
1266	498
1267	498
1268	482
1269	494
1270	515
1271	497
1272	486
1273	526
1274	510
1275	503
1276	442
1277	523
1278	531
1279	529
1280	530
1281	469
1282	493
1283	508
1284	493
1285	505
1286	510
1287	470
1288	478
1289	469
1290	456
1291	490
1292	473
1293	512
1294	485
1295	460
1296	504
1297	495
1298	489
1299	430
1300	428
1301	445
1302	430
1303	428
1304	434
1305	441
1306	361
1307	387
1308	419
1309	413
1310	358
1311	388
1312	374
1313	354
1314	357
1315	359
1316	386
1317	341
1318	331
1319	333
1320	351
1321	369
1322	343
1323	343
1324	368
1325	361
1326	359
1327	352
1328	330
1329	367
1330	348
1331	320
1332	326
1333	322
1334	360
1335	366
1336	349
1337	346
1338	349
1339	312
1340	348
1341	321
1342	324
1343	334
1344	356
1345	332
1346	328
1347	334
1348	316
1349	320
1350	304
1351	313
1352	338
1353	277
1354	345
1355	314
1356	321
1357	315
1358	287
1359	347
1360	309
1361	294
1362	300
1363	311
1364	286
1365	323
1366	296
1367	336
1368	299
1369	287
1370	309
1371	286
1372	316
1373	297
1374	292
1375	294
1376	293
1377	299
1378	273
1379	345
1380	313
1381	353
1382	420
1383	534
1384	707
1385	1029
1386	1439
1387	1972
1388	2651
1389	3199
1390	3731
1391	3821
1392	3615
1393	3170
1394	2438
1395	1888
1396	1296
1397	844
1398	623
1399	461
1400	356
1401	330
1402	277
1403	274
1404	281
1405	261
1406	247
1407	254
1408	248
1409	263
1410	281
1411	249
1412	250
1413	289
1414	259
1415	270
1416	233
1417	266
1418	298
1419	248
1420	244
1421	199
1422	241
1423	257
1424	250
1425	244
1426	242
1427	276
1428	241
1429	253
1430	251
1431	236
1432	239
1433	236
1434	255
1435	214
1436	242
1437	216
1438	257
1439	226
1440	252
1441	224
1442	224
1443	249
1444	210
1445	243
1446	227
1447	222
1448	229
1449	227
1450	223
1451	229
1452	225
1453	224
1454	202
1455	194
1456	207
1457	250
1458	217
1459	203
1460	239
1461	231
1462	197
1463	193
1464	238
1465	209
1466	225
1467	217
1468	219
1469	209
1470	211
1471	197
1472	209
1473	208
1474	236
1475	231
1476	218
1477	221
1478	208
1479	204
1480	198
1481	228
1482	223
1483	225
1484	246
1485	220
1486	217
1487	191
1488	208
1489	208
1490	213
1491	219
1492	214
1493	199
1494	216
1495	209
1496	194
1497	210
1498	208
1499	223
1500	178
1501	189
1502	184
1503	169
1504	199
1505	215
1506	215
1507	187
1508	190
1509	220
1510	219
1511	170
1512	224
1513	181
1514	182
1515	183
1516	217
1517	181
1518	184
1519	214
1520	185
1521	204
1522	222
1523	194
1524	180
1525	191
1526	206
1527	220
1528	202
1529	212
1530	184
1531	192
1532	209
1533	179
1534	174
1535	196
1536	199
1537	203
1538	182
1539	176
1540	188
1541	198
1542	170
1543	181
1544	210
1545	193
1546	180
1547	181
1548	167
1549	172
1550	178
1551	211
1552	165
1553	172
1554	192
1555	182
1556	197
1557	183
1558	184
1559	185
1560	186
1561	193
1562	185
1563	200
1564	174
1565	178
1566	200
1567	189
1568	176
1569	191
1570	216
1571	174
1572	184
1573	177
1574	181
1575	159
1576	193
1577	196
1578	177
1579	209
1580	181
1581	191
1582	186
1583	187
1584	195
1585	177
1586	167
1587	173
1588	190
1589	207
1590	202
1591	168
1592	163
1593	177
1594	153
1595	179
1596	185
1597	175
1598	173
1599	184
1600	179
1601	194
1602	182
1603	170
1604	199
1605	169
1606	162
1607	171
1608	190
1609	201
1610	188
1611	196
1612	183
1613	180
1614	175
1615	210
1616	197
1617	173
1618	163
1619	180
1620	182
1621	197
1622	166
1623	162
1624	187
1625	176
1626	179
1627	162
1628	183
1629	176
1630	165
1631	181
1632	177
1633	184
1634	170
1635	180
1636	179
1637	177
1638	173
1639	198
1640	194
1641	191
1642	181
1643	163
1644	188
1645	164
1646	165
1647	182
1648	187
1649	202
1650	186
1651	197
1652	162
1653	191
1654	185
1655	183
1656	166
1657	161
1658	172
1659	167
1660	193
1661	153
1662	159
1663	184
1664	203
1665	196
1666	175
1667	201
1668	154
1669	179
1670	169
1671	187
1672	171
1673	195
1674	155
1675	197
1676	175
1677	184
1678	155
1679	202
1680	161
1681	180
1682	185
1683	194
1684	174
1685	170
1686	186
1687	185
1688	179
1689	169
1690	198
1691	169
1692	193
1693	163
1694	181
1695	181
1696	165
1697	165
1698	160
1699	195
1700	184
1701	161
1702	165
1703	192
1704	176
1705	181
1706	189
1707	178
1708	191
1709	156
1710	159
1711	164
1712	177
1713	168
1714	183
1715	202
1716	145
1717	185
1718	194
1719	166
1720	175
1721	184
1722	190
1723	173
1724	177
1725	174
1726	191
1727	195
1728	169
1729	170
1730	166
1731	168
1732	177
1733	174
1734	195
1735	200
1736	188
1737	195
1738	174
1739	179
1740	186
1741	188
1742	189
1743	185
1744	179
1745	176
1746	183
1747	187
1748	181
1749	174
1750	194
1751	167
1752	185
1753	177
1754	185
1755	185
1756	189
1757	189
1758	195
1759	171
1760	171
1761	181
1762	202
1763	172
1764	173
1765	192
1766	190
1767	180
1768	155
1769	211
1770	216
1771	184
1772	208
1773	290
1774	398
1775	716
1776	1590
1777	3532
1778	7438
1779	12726
1780	18221
1781	21205
1782	20217
1783	15456
1784	9280
1785	4206
1786	1677
1787	575
1788	255
1789	176
1790	132
1791	151
1792	157
1793	165
1794	162
1795	137
1796	154
1797	163
1798	146
1799	148
1800	165
1801	147
1802	138
1803	129
1804	147
1805	143
1806	153
1807	153
1808	149
1809	149
1810	163
1811	132
1812	128
1813	187
1814	126
1815	153
1816	152
1817	152
1818	135
1819	164
1820	150
1821	142
1822	138
1823	173
1824	154
1825	142
1826	137
1827	145
1828	137
1829	131
1830	147
1831	140
1832	147
1833	148
1834	152
1835	147
1836	159
1837	159
1838	147
1839	131
1840	150
1841	119
1842	130
1843	123
1844	135
1845	142
1846	134
1847	143
1848	158
1849	147
1850	144
1851	123
1852	133
1853	133
1854	136
1855	131
1856	118
1857	137
1858	154
1859	161
1860	142
1861	138
1862	160
1863	117
1864	164
1865	133
1866	144
1867	150
1868	138
1869	129
1870	130
1871	140
1872	136
1873	123
1874	127
1875	130
1876	165
1877	143
1878	145
1879	112
1880	160
1881	156
1882	139
1883	161
1884	135
1885	165
1886	155
1887	139
1888	130
1889	126
1890	122
1891	167
1892	147
1893	142
1894	149
1895	129
1896	136
1897	156
1898	153
1899	151
1900	143
1901	125
1902	136
1903	136
1904	142
1905	138
1906	125
1907	141
1908	133
1909	139
1910	145
1911	154
1912	146
1913	160
1914	140
1915	150
1916	152
1917	143
1918	148
1919	142
1920	146
1921	139
1922	144
1923	161
1924	158
1925	162
1926	146
1927	168
1928	141
1929	136
1930	149
1931	171
1932	148
1933	131
1934	137
1935	137
1936	138
1937	138
1938	117
1939	140
1940	142
1941	150
1942	131
1943	126
1944	150
1945	155
1946	118
1947	133
1948	135
1949	139
1950	160
1951	156
1952	156
1953	158
1954	128
1955	142
1956	145
1957	125
1958	152
1959	125
1960	144
1961	138
1962	118
1963	160
1964	122
1965	150
1966	158
1967	144
1968	137
1969	157
1970	153
1971	161
1972	140
1973	144
1974	132
1975	164
1976	123
1977	155
1978	139
1979	147
1980	151
1981	172
1982	168
1983	147
1984	158
1985	154
1986	161
1987	166
1988	142
1989	142
1990	164
1991	144
1992	149
1993	153
1994	137
1995	144
1996	144
1997	163
1998	158
1999	159
2000	144
2001	139
2002	182
2003	156
2004	142
2005	136
2006	148
2007	141
2008	143
2009	128
2010	162
2011	151
2012	156
2013	165
2014	173
2015	162
2016	146
2017	133
2018	134
2019	160
2020	158
2021	140
2022	148
2023	156
2024	150
2025	127
2026	163
2027	156
2028	167
2029	137
2030	150
2031	160
2032	148
2033	139
2034	131
2035	154
2036	147
2037	152
2038	141
2039	148
2040	166
2041	146
2042	169
2043	152
2044	162
2045	137
2046	170
2047	161
2048	148
2049	124
2050	140
2051	163
2052	149
2053	139
2054	140
2055	173
2056	156
2057	152
2058	159
2059	137
2060	167
2061	165
2062	160
2063	143
2064	148
2065	139
2066	167
2067	171
2068	187
2069	136
2070	156
2071	153
2072	151
2073	131
2074	112
2075	163
2076	146
2077	138
2078	145
2079	133
2080	159
2081	165
2082	152
2083	161
2084	148
2085	158
2086	146
2087	157
2088	148
2089	173
2090	168
2091	175
2092	148
2093	163
2094	126
2095	146
2096	143
2097	146
2098	181
2099	163
2100	152
2101	155
2102	158
2103	148
2104	172
2105	160
2106	134
2107	153
2108	141
2109	173
2110	147
2111	166
2112	150
2113	180
2114	162
2115	154
2116	155
2117	167
2118	159
2119	166
2120	148
2121	166
2122	156
2123	148
2124	171
2125	156
2126	178
2127	152
2128	163
2129	174
2130	168
2131	166
2132	140
2133	165
2134	161
2135	159
2136	159
2137	149
2138	127
2139	166
2140	146
2141	147
2142	156
2143	169
2144	178
2145	142
2146	155
2147	171
2148	138
2149	152
2150	162
2151	152
2152	154
2153	155
2154	161
2155	154
2156	177
2157	166
2158	160
2159	180
2160	159
2161	160
2162	169
2163	176
2164	154
2165	162
2166	156
2167	176
2168	159
2169	164
2170	172
2171	185
2172	181
2173	143
2174	182
2175	161
2176	170
2177	140
2178	184
2179	162
2180	137
2181	184
2182	155
2183	149
2184	167
2185	174
2186	156
2187	170
2188	135
2189	164
2190	159
2191	204
2192	172
2193	154
2194	185
2195	174
2196	175
2197	181
2198	191
2199	164
2200	188
2201	189
2202	190
2203	176
2204	195
2205	176
2206	151
2207	168
2208	181
2209	164
2210	176
2211	163
2212	184
2213	152
2214	171
2215	157
2216	187
2217	180
2218	148
2219	166
2220	172
2221	147
2222	149
2223	184
2224	176
2225	186
2226	157
2227	166
2228	169
2229	161
2230	165
2231	182
2232	174
2233	181
2234	166
2235	178
2236	154
2237	182
2238	198
2239	179
2240	184
2241	158
2242	149
2243	166
2244	186
2245	174
2246	153
2247	163
2248	166
2249	167
2250	159
2251	174
2252	170
2253	201
2254	164
2255	185
2256	156
2257	169
2258	157
2259	186
2260	170
2261	177
2262	187
2263	181
2264	188
2265	182
2266	205
2267	141
2268	147
2269	171
2270	161
2271	169
2272	168
2273	193
2274	166
2275	185
2276	177
2277	191
2278	172
2279	170
2280	171
2281	177
2282	163
2283	164
2284	174
2285	160
2286	172
2287	187
2288	175
2289	209
2290	191
2291	180
2292	183
2293	195
2294	207
2295	184
2296	191
2297	168
2298	180
2299	182
2300	187
2301	179
2302	186
2303	180
2304	189
2305	187
2306	180
2307	190
2308	161
2309	176
2310	179
2311	212
2312	164
2313	198
2314	182
2315	199
2316	211
2317	188
2318	190
2319	210
2320	158
2321	191
2322	202
2323	194
2324	169
2325	198
2326	182
2327	208
2328	218
2329	203
2330	183
2331	186
2332	195
2333	197
2334	153
2335	204
2336	186
2337	226
2338	196
2339	189
2340	193
2341	217
2342	180
2343	175
2344	164
2345	191
2346	191
2347	176
2348	171
2349	198
2350	186
2351	196
2352	184
2353	200
2354	221
2355	192
2356	189
2357	172
2358	189
2359	178
2360	203
2361	224
2362	193
2363	211
2364	195
2365	188
2366	197
2367	205
2368	224
2369	189
2370	221
2371	208
2372	195
2373	220
2374	188
2375	215
2376	210
2377	188
2378	212
2379	206
2380	195
2381	235
2382	238
2383	190
2384	205
2385	208
2386	191
2387	195
2388	215
2389	202
2390	206
2391	208
2392	216
2393	215
2394	192
2395	197
2396	215
2397	215
2398	212
2399	212
2400	195
2401	222
2402	190
2403	195
2404	214
2405	192
2406	207
2407	223
2408	193
2409	223
2410	208
2411	187
2412	198
2413	240
2414	206
2415	221
2416	203
2417	242
2418	201
2419	222
2420	187
2421	216
2422	206
2423	190
2424	215
2425	232
2426	221
2427	218
2428	225
2429	197
2430	218
2431	199
2432	231
2433	248
2434	211
2435	202
2436	205
2437	220
2438	219
2439	222
2440	200
2441	201
2442	228
2443	229
2444	223
2445	216
2446	238
2447	222
2448	221
2449	224
2450	216
2451	242
2452	204
2453	219
2454	207
2455	222
2456	245
2457	242
2458	233
2459	241
2460	217
2461	229
2462	262
2463	225
2464	211
2465	230
2466	230
2467	198
2468	260
2469	225
2470	223
2471	217
2472	234
2473	293
2474	235
2475	229
2476	276
2477	245
2478	247
2479	240
2480	261
2481	241
2482	243
2483	247
2484	253
2485	257
2486	224
2487	238
2488	241
2489	262
2490	242
2491	248
2492	272
2493	254
2494	238
2495	211
2496	239
2497	250
2498	247
2499	254
2500	234
2501	248
2502	249
2503	246
2504	277
2505	236
2506	269
2507	247
2508	241
2509	234
2510	267
2511	238
2512	256
2513	242
2514	251
2515	234
2516	247
2517	254
2518	239
2519	258
2520	238
2521	235
2522	254
2523	246
2524	262
2525	254
2526	278
2527	276
2528	253
2529	235
2530	270
2531	271
2532	249
2533	250
2534	243
2535	259
2536	275
2537	244
2538	250
2539	238
2540	251
2541	255
2542	253
2543	249
2544	253
2545	233
2546	280
2547	285
2548	268
2549	234
2550	255
2551	237
2552	252
2553	238
2554	245
2555	243
2556	272
2557	251
2558	237
2559	208
2560	271
2561	263
2562	232
2563	238
2564	236
2565	249
2566	227
2567	202
2568	206
2569	198
2570	214
2571	238
2572	190
2573	220
2574	224
2575	213
2576	213
2577	204
2578	201
2579	209
2580	213
2581	191
2582	189
2583	202
2584	200
2585	193
2586	185
2587	233
2588	203
2589	199
2590	183
2591	178
2592	221
2593	206
2594	197
2595	178
2596	177
2597	202
2598	204
2599	188
2600	217
2601	198
2602	182
2603	187
2604	184
2605	183
2606	205
2607	188
2608	189
2609	191
2610	199
2611	160
2612	194
2613	186
2614	206
2615	186
2616	205
2617	191
2618	212
2619	178
2620	193
2621	181
2622	185
2623	187
2624	199
2625	168
2626	187
2627	176
2628	199
2629	177
2630	206
2631	187
2632	203
2633	169
2634	187
2635	189
2636	192
2637	167
2638	170
2639	177
2640	194
2641	189
2642	193
2643	208
2644	189
2645	202
2646	192
2647	200
2648	149
2649	189
2650	168
2651	209
2652	193
2653	177
2654	201
2655	179
2656	189
2657	192
2658	170
2659	206
2660	185
2661	206
2662	186
2663	163
2664	178
2665	170
2666	183
2667	206
2668	196
2669	180
2670	175
2671	190
2672	177
2673	192
2674	189
2675	169
2676	175
2677	188
2678	197
2679	208
2680	176
2681	171
2682	168
2683	188
2684	168
2685	170
2686	169
2687	182
2688	179
2689	178
2690	187
2691	178
2692	180
2693	190
2694	180
2695	180
2696	190
2697	166
2698	186
2699	161
2700	181
2701	192
2702	181
2703	164
2704	166
2705	195
2706	189
2707	164
2708	176
2709	193
2710	185
2711	150
2712	191
2713	172
2714	192
2715	198
2716	158
2717	167
2718	177
2719	193
2720	181
2721	190
2722	176
2723	199
2724	163
2725	182
2726	159
2727	181
2728	183
2729	180
2730	171
2731	200
2732	163
2733	161
2734	182
2735	197
2736	178
2737	178
2738	160
2739	168
2740	177
2741	175
2742	194
2743	187
2744	153
2745	191
2746	169
2747	202
2748	176
2749	169
2750	186
2751	212
2752	193
2753	159
2754	147
2755	176
2756	192
2757	174
2758	151
2759	173
2760	201
2761	171
2762	188
2763	192
2764	174
2765	173
2766	182
2767	171
2768	169
2769	182
2770	169
2771	167
2772	185
2773	177
2774	163
2775	176
2776	187
2777	161
2778	180
2779	169
2780	187
2781	151
2782	164
2783	139
2784	154
2785	166
2786	186
2787	177
2788	174
2789	185
2790	184
2791	189
2792	144
2793	180
2794	184
2795	159
2796	161
2797	168
2798	170
2799	170
2800	159
2801	165
2802	180
2803	182
2804	165
2805	166
2806	148
2807	165
2808	171
2809	156
2810	157
2811	168
2812	187
2813	192
2814	161
2815	164
2816	160
2817	168
2818	159
2819	155
2820	164
2821	168
2822	183
2823	164
2824	164
2825	158
2826	174
2827	178
2828	170
2829	183
2830	159
2831	162
2832	152
2833	182
2834	188
2835	159
2836	170
2837	135
2838	148
2839	169
2840	150
2841	182
2842	179
2843	162
2844	170
2845	173
2846	153
2847	177
2848	168
2849	172
2850	164
2851	170
2852	144
2853	184
2854	160
2855	175
2856	177
2857	169
2858	176
2859	172
2860	146
2861	183
2862	147
2863	142
2864	158
2865	170
2866	179
2867	193
2868	177
2869	169
2870	153
2871	169
2872	171
2873	145
2874	192
2875	164
2876	167
2877	173
2878	161
2879	183
2880	156
2881	161
2882	173
2883	169
2884	153
2885	176
2886	159
2887	195
2888	157
2889	176
2890	175
2891	176
2892	148
2893	164
2894	181
2895	174
2896	178
2897	164
2898	173
2899	194
2900	146
2901	166
2902	162
2903	175
2904	163
2905	174
2906	157
2907	194
2908	174
2909	154
2910	148
2911	168
2912	183
2913	180
2914	166
2915	162
2916	166
2917	175
2918	199
2919	177
2920	166
2921	193
2922	184
2923	165
2924	165
2925	163
2926	183
2927	171
2928	166
2929	167
2930	168
2931	195
2932	205
2933	170
2934	190
2935	183
2936	189
2937	169
2938	173
2939	157
2940	155
2941	183
2942	215
2943	191
2944	168
2945	170
2946	181
2947	163
2948	166
2949	147
2950	172
2951	157
2952	164
2953	155
2954	185
2955	156
2956	173
2957	150
2958	152
2959	148
2960	149
2961	180
2962	158
2963	162
2964	155
2965	146
2966	119
2967	143
2968	136
2969	132
2970	104
2971	125
2972	109
2973	115
2974	116
2975	99
2976	127
2977	115
2978	120
2979	131
2980	111
2981	116
2982	116
2983	116
2984	127
2985	118
2986	116
2987	114
2988	109
2989	117
2990	119
2991	115
2992	90
2993	116
2994	125
2995	116
2996	120
2997	112
2998	111
2999	113
3000	121
3001	107
3002	107
3003	101
3004	111
3005	91
3006	105
3007	110
3008	115
3009	102
3010	102
3011	116
3012	118
3013	114
3014	103
3015	97
3016	115
3017	93
3018	104
3019	107
3020	91
3021	103
3022	91
3023	110
3024	89
3025	111
3026	96
3027	90
3028	96
3029	92
3030	78
3031	90
3032	85
3033	97
3034	93
3035	116
3036	103
3037	95
3038	85
3039	90
3040	99
3041	109
3042	89
3043	105
3044	105
3045	91
3046	87
3047	92
3048	115
3049	100
3050	110
3051	110
3052	89
3053	92
3054	88
3055	91
3056	87
3057	107
3058	104
3059	98
3060	94
3061	103
3062	94
3063	91
3064	91
3065	89
3066	88
3067	87
3068	86
3069	82
3070	87
3071	88
3072	84
3073	79
3074	74
3075	92
3076	72
3077	80
3078	89
3079	83
3080	87
3081	89
3082	88
3083	71
3084	72
3085	69
3086	97
3087	95
3088	73
3089	85
3090	103
3091	89
3092	75
3093	86
3094	92
3095	75
3096	74
3097	119
3098	130
3099	165
3100	347
3101	751
3102	1609
3103	3173
3104	5253
3105	7543
3106	9374
3107	9812
3108	8441
3109	6111
3110	3708
3111	1840
3112	803
3113	306
3114	175
3115	91
3116	77
3117	86
3118	68
3119	79
3120	85
3121	70
3122	69
3123	66
3124	77
3125	66
3126	61
3127	56
3128	69
3129	72
3130	43
3131	71
3132	52
3133	81
3134	75
3135	58
3136	62
3137	61
3138	58
3139	67
3140	60
3141	67
3142	68
3143	56
3144	58
3145	82
3146	62
3147	59
3148	64
3149	65
3150	67
3151	61
3152	44
3153	43
3154	66
3155	55
3156	43
3157	69
3158	54
3159	54
3160	49
3161	52
3162	46
3163	46
3164	69
3165	62
3166	44
3167	55
3168	39
3169	48
3170	49
3171	52
3172	59
3173	47
3174	47
3175	42
3176	42
3177	48
3178	47
3179	38
3180	44
3181	41
3182	46
3183	42
3184	37
3185	49
3186	53
3187	43
3188	42
3189	56
3190	38
3191	36
3192	45
3193	48
3194	55
3195	35
3196	37
3197	52
3198	40
3199	50
3200	39
3201	43
3202	35
3203	30
3204	35
3205	43
3206	42
3207	36
3208	32
3209	33
3210	44
3211	28
3212	40
3213	36
3214	26
3215	38
3216	42
3217	41
3218	26
3219	29
3220	33
3221	24
3222	30
3223	35
3224	38
3225	35
3226	31
3227	32
3228	37
3229	35
3230	36
3231	33
3232	26
3233	33
3234	29
3235	37
3236	31
3237	37
3238	21
3239	23
3240	29
3241	29
3242	28
3243	23
3244	31
3245	39
3246	27
3247	32
3248	32
3249	37
3250	34
3251	28
3252	19
3253	25
3254	25
3255	25
3256	36
3257	37
3258	31
3259	28
3260	25
3261	32
3262	18
3263	29
3264	31
3265	30
3266	37
3267	32
3268	31
3269	22
3270	28
3271	27
3272	24
3273	24
3274	26
3275	31
3276	28
3277	17
3278	33
3279	26
3280	19
3281	27
3282	26
3283	22
3284	24
3285	21
3286	19
3287	24
3288	30
3289	19
3290	21
3291	15
3292	26
3293	20
3294	21
3295	24
3296	18
3297	23
3298	32
3299	21
3300	25
3301	23
3302	23
3303	19
3304	21
3305	17
3306	34
3307	23
3308	22
3309	33
3310	30
3311	27
3312	25
3313	23
3314	18
3315	13
3316	30
3317	19
3318	24
3319	20
3320	23
3321	31
3322	17
3323	25
3324	22
3325	17
3326	27
3327	29
3328	17
3329	25
3330	20
3331	16
3332	19
3333	30
3334	18
3335	9
3336	13
3337	16
3338	26
3339	17
3340	21
3341	15
3342	26
3343	28
3344	23
3345	19
3346	21
3347	24
3348	24
3349	31
3350	23
3351	22
3352	17
3353	25
3354	30
3355	20
3356	21
3357	20
3358	30
3359	24
3360	17
3361	25
3362	52
3363	74
3364	165
3365	314
3366	564
3367	902
3368	1166
3369	1324
3370	1306
3371	962
3372	717
3373	385
3374	179
3375	99
3376	50
3377	26
3378	34
3379	22
3380	21
3381	22
3382	20
3383	13
3384	20
3385	21
3386	18
3387	17
3388	17
3389	17
3390	18
3391	16
3392	27
3393	16
3394	16
3395	25
3396	22
3397	16
3398	18
3399	24
3400	12
3401	19
3402	16
3403	17
3404	8
3405	16
3406	18
3407	12
3408	15
3409	21
3410	15
3411	22
3412	16
3413	20
3414	17
3415	15
3416	15
3417	16
3418	20
3419	19
3420	21
3421	16
3422	15
3423	20
3424	18
3425	14
3426	13
3427	20
3428	17
3429	20
3430	23
3431	16
3432	24
3433	15
3434	24
3435	15
3436	15
3437	20
3438	8
3439	23
3440	23
3441	16
3442	14
3443	11
3444	18
3445	11
3446	12
3447	20
3448	15
3449	17
3450	19
3451	11
3452	16
3453	14
3454	14
3455	17
3456	17
3457	19
3458	18
3459	16
3460	10
3461	15
3462	18
3463	14
3464	14
3465	17
3466	10
3467	11
3468	18
3469	22
3470	15
3471	14
3472	16
3473	16
3474	23
3475	12
3476	9
3477	18
3478	17
3479	15
3480	19
3481	21
3482	19
3483	24
3484	10
3485	19
3486	14
3487	9
3488	13
3489	18
3490	22
3491	16
3492	22
3493	14
3494	19
3495	14
3496	16
3497	25
3498	20
3499	21
3500	14
3501	16
3502	18
3503	25
3504	20
3505	17
3506	28
3507	26
3508	25
3509	38
3510	31
3511	68
3512	136
3513	381
3514	713
3515	1733
3516	3095
3517	5128
3518	7064
3519	8325
3520	8158
3521	7025
3522	5015
3523	3107
3524	1557
3525	638
3526	221
3527	79
3528	32
3529	19
3530	18
3531	20
3532	8
3533	19
3534	19
3535	15
3536	12
3537	10
3538	13
3539	7
3540	6
3541	15
3542	3
3543	11
3544	12
3545	11
3546	11
3547	7
3548	8
3549	6
3550	7
3551	8
3552	6
3553	6
3554	6
3555	7
3556	16
3557	6
3558	11
3559	14
3560	10
3561	7
3562	7
3563	10
3564	10
3565	9
3566	6
3567	6
3568	8
3569	10
3570	4
3571	7
3572	12
3573	7
3574	13
3575	9
3576	12
3577	9
3578	9
3579	6
3580	5
3581	10
3582	12
3583	6
3584	8
3585	10
3586	5
3587	4
3588	9
3589	14
3590	9
3591	12
3592	4
3593	10
3594	4
3595	11
3596	5
3597	1
3598	13
3599	3
3600	7
3601	13
3602	7
3603	6
3604	8
3605	4
3606	6
3607	7
3608	7
3609	9
3610	7
3611	5
3612	12
3613	7
3614	4
3615	6
3616	3
3617	7
3618	5
3619	5
3620	5
3621	6
3622	3
3623	8
3624	7
3625	8
3626	4
3627	10
3628	5
3629	5
3630	3
3631	2
3632	2
3633	4
3634	5
3635	9
3636	5
3637	5
3638	9
3639	11
3640	5
3641	12
3642	7
3643	9
3644	6
3645	3
3646	7
3647	11
3648	3
3649	4
3650	7
3651	4
3652	5
3653	4
3654	10
3655	8
3656	2
3657	5
3658	7
3659	5
3660	10
3661	7
3662	3
3663	3
3664	9
3665	8
3666	12
3667	12
3668	6
3669	9
3670	11
3671	3
3672	12
3673	8
3674	6
3675	9
3676	9
3677	9
3678	8
3679	9
3680	9
3681	7
3682	4
3683	9
3684	5
3685	9
3686	5
3687	5
3688	3
3689	9
3690	4
3691	7
3692	6
3693	4
3694	12
3695	4
3696	11
3697	6
3698	9
3699	5
3700	4
3701	8
3702	5
3703	11
3704	6
3705	5
3706	4
3707	0
3708	7
3709	6
3710	9
3711	9
3712	8
3713	1
3714	12
3715	4
3716	8
3717	12
3718	4
3719	10
3720	5
3721	9
3722	5
3723	5
3724	7
3725	6
3726	2
3727	2
3728	5
3729	13
3730	4
3731	9
3732	5
3733	5
3734	5
3735	6
3736	4
3737	4
3738	5
3739	6
3740	6
3741	4
3742	4
3743	3
3744	4
3745	7
3746	3
3747	6
3748	6
3749	3
3750	9
3751	4
3752	6
3753	7
3754	2
3755	8
3756	3
3757	3
3758	6
3759	4
3760	6
3761	9
3762	5
3763	4
3764	5
3765	11
3766	9
3767	6
3768	8
3769	9
3770	7
3771	3
3772	4
3773	5
3774	8
3775	5
3776	3
3777	9
3778	1
3779	4
3780	5
3781	4
3782	10
3783	5
3784	11
3785	5
3786	5
3787	8
3788	8
3789	3
3790	12
3791	8
3792	4
3793	7
3794	7
3795	5
3796	2
3797	5
3798	6
3799	4
3800	7
3801	4
3802	5
3803	8
3804	7
3805	1
3806	5
3807	5
3808	9
3809	4
3810	3
3811	1
3812	6
3813	12
3814	2
3815	3
3816	6
3817	7
3818	2
3819	3
3820	5
3821	6
3822	1
3823	11
3824	6
3825	9
3826	9
3827	6
3828	9
3829	7
3830	8
3831	7
3832	3
3833	5
3834	9
3835	8
3836	6
3837	5
3838	2
3839	8
3840	10
3841	4
3842	3
3843	12
3844	9
3845	5
3846	6
3847	3
3848	5
3849	6
3850	4
3851	5
3852	7
3853	5
3854	5
3855	10
3856	5
3857	10
3858	6
3859	8
3860	16
3861	7
3862	4
3863	6
3864	4
3865	4
3866	5
3867	7
3868	2
3869	1
3870	9
3871	5
3872	8
3873	5
3874	6
3875	4
3876	6
3877	3
3878	9
3879	10
3880	8
3881	6
3882	3
3883	5
3884	5
3885	4
3886	2
3887	5
3888	9
3889	4
3890	4
3891	3
3892	8
3893	3
3894	6
3895	13
3896	6
3897	6
3898	6
3899	3
3900	8
3901	5
3902	2
3903	6
3904	7
3905	6
3906	3
3907	6
3908	7
3909	3
3910	1
3911	4
3912	2
3913	3
3914	6
3915	7
3916	5
3917	3
3918	3
3919	7
3920	5
3921	7
3922	3
3923	10
3924	5
3925	5
3926	2
3927	7
3928	8
3929	4
3930	3
3931	4
3932	6
3933	4
3934	5
3935	6
3936	9
3937	7
3938	4
3939	3
3940	6
3941	3
3942	3
3943	7
3944	5
3945	3
3946	2
3947	3
3948	3
3949	5
3950	7
3951	4
3952	3
3953	4
3954	5
3955	3
3956	3
3957	5
3958	4
3959	7
3960	3
3961	9
3962	10
3963	7
3964	5
3965	5
3966	4
3967	6
3968	4
3969	2
3970	4
3971	3
3972	5
3973	10
3974	6
3975	4
3976	2
3977	2
3978	4
3979	3
3980	6
3981	6
3982	5
3983	3
3984	3
3985	7
3986	8
3987	6
3988	6
3989	6
3990	4
3991	3
3992	5
3993	6
3994	3
3995	10
3996	2
3997	4
3998	8
3999	3
4000	1
4001	4
4002	7
4003	6
4004	7
4005	3
4006	7
4007	4
4008	4
4009	5
4010	4
4011	5
4012	4
4013	4
4014	6
4015	4
4016	9
4017	2
4018	4
4019	4
4020	8
4021	4
4022	8
4023	5
4024	7
4025	5
4026	4
4027	3
4028	5
4029	8
4030	5
4031	4
4032	6
4033	4
4034	1
4035	6
4036	5
4037	6
4038	6
4039	7
4040	3
4041	7
4042	7
4043	2
4044	6
4045	3
4046	7
4047	6
4048	4
4049	5
4050	7
4051	9
4052	5
4053	3
4054	3
4055	6
4056	2
4057	2
4058	3
4059	4
4060	3
4061	4
4062	8
4063	2
4064	5
4065	4
4066	6
4067	10
4068	6
4069	8
4070	8
4071	8
4072	5
4073	12
4074	4
4075	9
4076	7
4077	3
4078	5
4079	8
4080	5
4081	4
4082	5
4083	7
4084	8
4085	7
4086	7
4087	5
4088	3
4089	7
4090	7
4091	4
4092	5
4093	5
4094	5
4095	3
4096	6
4097	6
4098	4
4099	10
4100	2
4101	7
4102	4
4103	5
4104	5
4105	6
4106	2
4107	5
4108	3
4109	4
4110	9
4111	8
4112	4
4113	9
4114	7
4115	5
4116	1
4117	4
4118	3
4119	6
4120	4
4121	3
4122	5
4123	9
4124	8
4125	5
4126	6
4127	5
4128	3
4129	7
4130	2
4131	3
4132	4
4133	7
4134	5
4135	3
4136	3
4137	7
4138	6
4139	2
4140	3
4141	11
4142	4
4143	5
4144	4
4145	6
4146	6
4147	9
4148	10
4149	7
4150	3
4151	9
4152	5
4153	2
4154	1
4155	6
4156	8
4157	2
4158	5
4159	5
4160	6
4161	5
4162	8
4163	5
4164	4
4165	1
4166	1
4167	8
4168	9
4169	6
4170	3
4171	5
4172	4
4173	8
4174	7
4175	7
4176	2
4177	5
4178	5
4179	5
4180	2
4181	3
4182	7
4183	6
4184	7
4185	4
4186	3
4187	5
4188	6
4189	5
4190	10
4191	3
4192	4
4193	4
4194	5
4195	5
4196	4
4197	9
4198	6
4199	1
4200	1
4201	7
4202	3
4203	4
4204	6
4205	2
4206	2
4207	1
4208	4
4209	4
4210	5
4211	6
4212	2
4213	2
4214	5
4215	5
4216	0
4217	11
4218	6
4219	5
4220	5
4221	4
4222	6
4223	3
4224	3
4225	5
4226	6
4227	4
4228	11
4229	5
4230	4
4231	7
4232	4
4233	7
4234	8
4235	3
4236	5
4237	2
4238	4
4239	5
4240	4
4241	2
4242	6
4243	6
4244	5
4245	2
4246	6
4247	3
4248	7
4249	1
4250	1
4251	6
4252	4
4253	6
4254	2
4255	5
4256	7
4257	3
4258	6
4259	3
4260	2
4261	1
4262	5
4263	4
4264	6
4265	1
4266	4
4267	5
4268	3
4269	4
4270	4
4271	5
4272	4
4273	2
4274	1
4275	3
4276	4
4277	4
4278	6
4279	2
4280	4
4281	6
4282	4
4283	4
4284	6
4285	2
4286	3
4287	5
4288	4
4289	4
4290	3
4291	7
4292	4
4293	3
4294	4
4295	4
4296	3
4297	5
4298	8
4299	5
4300	1
4301	2
4302	5
4303	5
4304	6
4305	2
4306	4
4307	6
4308	3
4309	5
4310	3
4311	1
4312	4
4313	6
4314	5
4315	5
4316	2
4317	5
4318	9
4319	4
4320	3
4321	7
4322	4
4323	2
4324	2
4325	3
4326	8
4327	2
4328	4
4329	5
4330	3
4331	0
4332	3
4333	4
4334	5
4335	6
4336	6
4337	4
4338	4
4339	3
4340	2
4341	3
4342	6
4343	2
4344	6
4345	1
4346	3
4347	6
4348	6
4349	3
4350	3
4351	5
4352	4
4353	4
4354	4
4355	5
4356	4
4357	6
4358	4
4359	5
4360	3
4361	2
4362	3
4363	6
4364	2
4365	4
4366	1
4367	2
4368	8
4369	6
4370	4
4371	1
4372	2
4373	1
4374	3
4375	8
4376	5
4377	2
4378	4
4379	4
4380	2
4381	1
4382	2
4383	5
4384	4
4385	2
4386	1
4387	3
4388	7
4389	0
4390	5
4391	2
4392	1
4393	5
4394	6
4395	4
4396	9
4397	4
4398	3
4399	6
4400	6
4401	5
4402	4
4403	1
4404	2
4405	5
4406	5
4407	3
4408	5
4409	5
4410	5
4411	3
4412	7
4413	8
4414	4
4415	3
4416	6
4417	1
4418	7
4419	7
4420	3
4421	2
4422	4
4423	3
4424	7
4425	6
4426	1
4427	3
4428	4
4429	6
4430	8
4431	6
4432	2
4433	3
4434	5
4435	2
4436	6
4437	5
4438	4
4439	2
4440	3
4441	2
4442	0
4443	6
4444	1
4445	1
4446	5
4447	8
4448	3
4449	2
4450	2
4451	1
4452	3
4453	5
4454	2
4455	8
4456	7
4457	4
4458	6
4459	2
4460	4
4461	3
4462	6
4463	3
4464	2
4465	2
4466	2
4467	6
4468	6
4469	1
4470	0
4471	4
4472	10
4473	4
4474	7
4475	4
4476	4
4477	2
4478	2
4479	1
4480	5
4481	3
4482	3
4483	3
4484	7
4485	3
4486	4
4487	4
4488	5
4489	2
4490	7
4491	2
4492	2
4493	6
4494	1
4495	5
4496	3
4497	5
4498	5
4499	5
4500	1
4501	8
4502	3
4503	8
4504	6
4505	3
4506	6
4507	3
4508	3
4509	3
4510	6
4511	3
4512	2
4513	3
4514	3
4515	4
4516	5
4517	3
4518	2
4519	3
4520	3
4521	6
4522	1
4523	2
4524	0
4525	5
4526	6
4527	2
4528	5
4529	3
4530	1
4531	3
4532	7
4533	5
4534	5
4535	4
4536	3
4537	5
4538	3
4539	4
4540	4
4541	3
4542	0
4543	4
4544	5
4545	8
4546	6
4547	4
4548	4
4549	3
4550	3
4551	2
4552	8
4553	4
4554	5
4555	3
4556	5
4557	1
4558	2
4559	3
4560	5
4561	6
4562	4
4563	2
4564	5
4565	1
4566	2
4567	1
4568	0
4569	4
4570	3
4571	7
4572	2
4573	1
4574	1
4575	5
4576	4
4577	2
4578	3
4579	5
4580	1
4581	2
4582	3
4583	1
4584	3
4585	4
4586	2
4587	2
4588	0
4589	1
4590	4
4591	5
4592	5
4593	3
4594	2
4595	2
4596	3
4597	2
4598	6
4599	4
4600	1
4601	6
4602	9
4603	2
4604	3
4605	3
4606	3
4607	3
4608	5
4609	3
4610	1
4611	3
4612	5
4613	3
4614	5
4615	2
4616	5
4617	4
4618	7
4619	3
4620	1
4621	4
4622	4
4623	3
4624	2
4625	3
4626	3
4627	1
4628	7
4629	2
4630	3
4631	5
4632	0
4633	4
4634	4
4635	4
4636	6
4637	5
4638	5
4639	3
4640	7
4641	9
4642	1
4643	4
4644	5
4645	2
4646	3
4647	7
4648	4
4649	3
4650	5
4651	2
4652	2
4653	4
4654	5
4655	5
4656	10
4657	0
4658	4
4659	3
4660	2
4661	2
4662	3
4663	4
4664	5
4665	5
4666	2
4667	2
4668	4
4669	6
4670	6
4671	3
4672	3
4673	5
4674	1
4675	5
4676	3
4677	4
4678	1
4679	3
4680	3
4681	1
4682	5
4683	2
4684	3
4685	6
4686	4
4687	5
4688	9
4689	14
4690	12
4691	14
4692	12
4693	22
4694	15
4695	22
4696	16
4697	13
4698	9
4699	11
4700	7
4701	6
4702	3
4703	3
4704	9
4705	9
4706	3
4707	3
4708	4
4709	3
4710	7
4711	2
4712	3
4713	5
4714	3
4715	6
4716	3
4717	3
4718	8
4719	2
4720	3
4721	2
4722	0
4723	3
4724	1
4725	3
4726	3
4727	2
4728	1
4729	1
4730	5
4731	0
4732	3
4733	3
4734	3
4735	6
4736	5
4737	4
4738	5
4739	4
4740	4
4741	1
4742	4
4743	3
4744	2
4745	2
4746	4
4747	3
4748	1
4749	2
4750	3
4751	1
4752	2
4753	3
4754	4
4755	3
4756	2
4757	5
4758	2
4759	3
4760	2
4761	3
4762	3
4763	2
4764	3
4765	3
4766	2
4767	2
4768	2
4769	0
4770	5
4771	3
4772	5
4773	5
4774	0
4775	4
4776	4
4777	1
4778	3
4779	3
4780	6
4781	6
4782	3
4783	1
4784	3
4785	2
4786	1
4787	4
4788	3
4789	2
4790	4
4791	2
4792	4
4793	1
4794	1
4795	2
4796	3
4797	4
4798	3
4799	1
4800	5
4801	5
4802	1
4803	0
4804	0
4805	4
4806	4
4807	4
4808	3
4809	6
4810	3
4811	2
4812	5
4813	3
4814	2
4815	2
4816	3
4817	1
4818	8
4819	1
4820	9
4821	2
4822	7
4823	5
4824	4
4825	5
4826	4
4827	2
4828	8
4829	5
4830	2
4831	5
4832	6
4833	1
4834	7
4835	1
4836	7
4837	1
4838	2
4839	2
4840	2
4841	4
4842	5
4843	5
4844	6
4845	1
4846	4
4847	2
4848	5
4849	5
4850	2
4851	1
4852	2
4853	1
4854	3
4855	1
4856	2
4857	3
4858	2
4859	3
4860	1
4861	6
4862	5
4863	1
4864	6
4865	3
4866	5
4867	6
4868	1
4869	3
4870	1
4871	3
4872	2
4873	3
4874	2
4875	7
4876	2
4877	2
4878	3
4879	2
4880	2
4881	5
4882	5
4883	4
4884	4
4885	4
4886	7
4887	5
4888	4
4889	5
4890	2
4891	2
4892	4
4893	4
4894	4
4895	2
4896	2
4897	1
4898	2
4899	6
4900	3
4901	3
4902	5
4903	1
4904	5
4905	2
4906	6
4907	2
4908	3
4909	2
4910	3
4911	2
4912	2
4913	9
4914	2
4915	4
4916	5
4917	3
4918	1
4919	2
4920	5
4921	2
4922	2
4923	2
4924	3
4925	0
4926	1
4927	4
4928	2
4929	5
4930	2
4931	6
4932	3
4933	2
4934	3
4935	4
4936	5
4937	3
4938	5
4939	7
4940	1
4941	3
4942	4
4943	1
4944	2
4945	2
4946	3
4947	2
4948	3
4949	2
4950	2
4951	6
4952	3
4953	5
4954	4
4955	1
4956	5
4957	2
4958	3
4959	3
4960	2
4961	5
4962	2
4963	1
4964	0
4965	1
4966	1
4967	4
4968	2
4969	6
4970	5
4971	3
4972	4
4973	5
4974	2
4975	4
4976	2
4977	4
4978	4
4979	4
4980	1
4981	3
4982	4
4983	6
4984	0
4985	3
4986	2
4987	0
4988	4
4989	6
4990	2
4991	3
4992	1
4993	4
4994	2
4995	3
4996	5
4997	6
4998	0
4999	2
5000	4
5001	5
5002	5
5003	5
5004	2
5005	3
5006	2
5007	2
5008	1
5009	3
5010	6
5011	4
5012	2
5013	2
5014	2
5015	3
5016	1
5017	2
5018	5
5019	3
5020	1
5021	1
5022	3
5023	4
5024	6
5025	2
5026	6
5027	1
5028	4
5029	4
5030	7
5031	9
5032	1
5033	2
5034	1
5035	2
5036	4
5037	3
5038	5
5039	0
5040	1
5041	0
5042	3
5043	7
5044	3
5045	4
5046	2
5047	2
5048	3
5049	2
5050	2
5051	1
5052	1
5053	2
5054	4
5055	0
5056	2
5057	3
5058	1
5059	3
5060	6
5061	2
5062	4
5063	4
5064	1
5065	1
5066	3
5067	4
5068	2
5069	4
5070	8
5071	6
5072	5
5073	5
5074	1
5075	1
5076	2
5077	1
5078	3
5079	6
5080	3
5081	2
5082	3
5083	1
5084	3
5085	0
5086	2
5087	3
5088	2
5089	2
5090	2
5091	0
5092	1
5093	1
5094	2
5095	3
5096	2
5097	3
5098	7
5099	5
5100	0
5101	4
5102	3
5103	2
5104	3
5105	4
5106	4
5107	3
5108	1
5109	2
5110	1
5111	4
5112	1
5113	5
5114	4
5115	1
5116	2
5117	1
5118	5
5119	5
5120	2
5121	2
5122	1
5123	0
5124	1
5125	3
5126	4
5127	2
5128	1
5129	1
5130	4
5131	8
5132	1
5133	5
5134	3
5135	4
5136	4
5137	3
5138	6
5139	4
5140	1
5141	7
5142	3
5143	8
5144	2
5145	3
5146	2
5147	3
5148	4
5149	1
5150	1
5151	4
5152	3
5153	3
5154	4
5155	3
5156	1
5157	4
5158	4
5159	5
5160	2
5161	1
5162	3
5163	3
5164	1
5165	5
5166	1
5167	1
5168	3
5169	3
5170	2
5171	4
5172	2
5173	3
5174	2
5175	2
5176	4
5177	0
5178	5
5179	3
5180	2
5181	2
5182	4
5183	3
5184	3
5185	1
5186	3
5187	3
5188	2
5189	2
5190	1
5191	2
5192	4
5193	0
5194	2
5195	1
5196	2
5197	4
5198	1
5199	2
5200	1
5201	2
5202	0
5203	2
5204	1
5205	2
5206	2
5207	1
5208	4
5209	2
5210	1
5211	3
5212	3
5213	1
5214	4
5215	2
5216	4
5217	2
5218	1
5219	2
5220	4
5221	4
5222	2
5223	2
5224	4
5225	2
5226	5
5227	4
5228	4
5229	6
5230	5
5231	6
5232	3
5233	4
5234	6
5235	3
5236	2
5237	5
5238	4
5239	3
5240	2
5241	1
5242	2
5243	1
5244	3
5245	5
5246	1
5247	3
5248	3
5249	5
5250	2
5251	5
5252	4
5253	4
5254	4
5255	3
5256	1
5257	1
5258	1
5259	1
5260	2
5261	1
5262	4
5263	2
5264	3
5265	4
5266	3
5267	3
5268	2
5269	5
5270	5
5271	2
5272	3
5273	3
5274	3
5275	3
5276	6
5277	6
5278	2
5279	2
5280	3
5281	2
5282	2
5283	4
5284	1
5285	2
5286	3
5287	3
5288	3
5289	7
5290	2
5291	5
5292	3
5293	2
5294	3
5295	2
5296	4
5297	3
5298	3
5299	2
5300	2
5301	2
5302	2
5303	4
5304	3
5305	1
5306	4
5307	5
5308	2
5309	5
5310	3
5311	5
5312	3
5313	3
5314	3
5315	1
5316	2
5317	2
5318	4
5319	2
5320	4
5321	5
5322	3
5323	4
5324	4
5325	5
5326	2
5327	4
5328	1
5329	1
5330	2
5331	5
5332	3
5333	3
5334	5
5335	2
5336	3
5337	3
5338	4
5339	4
5340	1
5341	5
5342	4
5343	3
5344	0
5345	3
5346	4
5347	4
5348	4
5349	3
5350	6
5351	5
5352	2
5353	3
5354	5
5355	1
5356	1
5357	2
5358	6
5359	4
5360	3
5361	3
5362	1
5363	1
5364	4
5365	9
5366	3
5367	5
5368	5
5369	4
5370	2
5371	3
5372	4
5373	4
5374	5
5375	3
5376	5
5377	0
5378	1
5379	4
5380	2
5381	3
5382	4
5383	3
5384	3
5385	1
5386	2
5387	2
5388	6
5389	6
5390	3
5391	2
5392	2
5393	1
5394	2
5395	3
5396	3
5397	6
5398	1
5399	5
5400	4
5401	2
5402	2
5403	6
5404	2
5405	3
5406	2
5407	1
5408	4
5409	5
5410	4
5411	4
5412	5
5413	4
5414	5
5415	4
5416	3
5417	2
5418	2
5419	3
5420	3
5421	4
5422	4
5423	5
5424	3
5425	4
5426	3
5427	3
5428	4
5429	0
5430	3
5431	3
5432	1
5433	5
5434	3
5435	4
5436	1
5437	2
5438	1
5439	2
5440	6
5441	7
5442	2
5443	2
5444	2
5445	0
5446	5
5447	1
5448	2
5449	1
5450	1
5451	5
5452	3
5453	3
5454	2
5455	1
5456	4
5457	3
5458	3
5459	3
5460	2
5461	2
5462	6
5463	3
5464	3
5465	2
5466	0
5467	1
5468	2
5469	0
5470	1
5471	3
5472	3
5473	1
5474	4
5475	2
5476	3
5477	2
5478	3
5479	2
5480	1
5481	2
5482	1
5483	2
5484	3
5485	5
5486	1
5487	3
5488	10
5489	1
5490	4
5491	1
5492	1
5493	5
5494	5
5495	3
5496	3
5497	4
5498	4
5499	6
5500	1
5501	3
5502	2
5503	4
5504	1
5505	3
5506	0
5507	3
5508	1
5509	7
5510	3
5511	2
5512	4
5513	3
5514	2
5515	4
5516	3
5517	3
5518	2
5519	2
5520	2
5521	6
5522	1
5523	1
5524	1
5525	0
5526	1
5527	4
5528	3
5529	0
5530	2
5531	3
5532	3
5533	1
5534	3
5535	1
5536	2
5537	4
5538	3
5539	0
5540	5
5541	1
5542	2
5543	3
5544	4
5545	2
5546	2
5547	4
5548	4
5549	2
5550	1
5551	2
5552	3
5553	2
5554	4
5555	5
5556	2
5557	1
5558	2
5559	7
5560	2
5561	4
5562	1
5563	2
5564	3
5565	2
5566	2
5567	2
5568	1
5569	1
5570	4
5571	3
5572	6
5573	1
5574	6
5575	1
5576	1
5577	3
5578	5
5579	3
5580	2
5581	1
5582	4
5583	2
5584	2
5585	3
5586	3
5587	2
5588	1
5589	0
5590	5
5591	3
5592	2
5593	2
5594	4
5595	4
5596	3
5597	5
5598	2
5599	2
5600	1
5601	1
5602	4
5603	1
5604	1
5605	1
5606	3
5607	1
5608	1
5609	1
5610	4
5611	2
5612	1
5613	0
5614	1
5615	2
5616	11
5617	3
5618	0
5619	2
5620	6
5621	1
5622	1
5623	3
5624	2
5625	5
5626	3
5627	3
5628	0
5629	2
5630	0
5631	2
5632	3
5633	3
5634	2
5635	1
5636	3
5637	1
5638	2
5639	3
5640	4
5641	4
5642	2
5643	1
5644	5
5645	2
5646	2
5647	4
5648	4
5649	2
5650	1
5651	1
5652	1
5653	3
5654	2
5655	4
5656	3
5657	1
5658	4
5659	1
5660	7
5661	1
5662	3
5663	1
5664	1
5665	1
5666	2
5667	5
5668	5
5669	1
5670	3
5671	2
5672	2
5673	3
5674	2
5675	1
5676	5
5677	3
5678	2
5679	2
5680	2
5681	0
5682	0
5683	4
5684	4
5685	3
5686	3
5687	0
5688	2
5689	3
5690	3
5691	4
5692	1
5693	5
5694	1
5695	2
5696	2
5697	3
5698	1
5699	3
5700	2
5701	3
5702	4
5703	3
5704	2
5705	4
5706	4
5707	3
5708	3
5709	3
5710	1
5711	5
5712	3
5713	3
5714	4
5715	3
5716	7
5717	1
5718	0
5719	3
5720	2
5721	2
5722	0
5723	0
5724	4
5725	2
5726	1
5727	4
5728	2
5729	3
5730	4
5731	1
5732	0
5733	1
5734	2
5735	2
5736	4
5737	2
5738	4
5739	4
5740	1
5741	4
5742	3
5743	1
5744	3
5745	2
5746	3
5747	6
5748	1
5749	3
5750	3
5751	5
5752	2
5753	4
5754	0
5755	4
5756	2
5757	4
5758	1
5759	2
5760	3
5761	2
5762	1
5763	1
5764	1
5765	4
5766	4
5767	8
5768	4
5769	1
5770	5
5771	4
5772	3
5773	3
5774	2
5775	7
5776	4
5777	2
5778	5
5779	2
5780	2
5781	1
5782	3
5783	1
5784	4
5785	3
5786	3
5787	1
5788	7
5789	8
5790	3
5791	2
5792	3
5793	4
5794	4
5795	2
5796	1
5797	5
5798	2
5799	4
5800	3
5801	5
5802	1
5803	1
5804	2
5805	2
5806	4
5807	3
5808	1
5809	1
5810	0
5811	0
5812	3
5813	0
5814	1
5815	4
5816	0
5817	3
5818	1
5819	4
5820	8
5821	5
5822	3
5823	1
5824	6
5825	5
5826	0
5827	0
5828	2
5829	2
5830	1
5831	3
5832	5
5833	4
5834	3
5835	1
5836	3
5837	2
5838	4
5839	6
5840	1
5841	4
5842	1
5843	5
5844	3
5845	4
5846	3
5847	1
5848	2
5849	4
5850	4
5851	5
5852	3
5853	4
5854	5
5855	5
5856	2
5857	4
5858	1
5859	7
5860	1
5861	4
5862	5
5863	4
5864	3
5865	1
5866	2
5867	1
5868	6
5869	1
5870	4
5871	2
5872	1
5873	2
5874	3
5875	1
5876	5
5877	3
5878	3
5879	4
5880	5
5881	2
5882	6
5883	2
5884	2
5885	3
5886	4
5887	2
5888	2
5889	1
5890	5
5891	1
5892	0
5893	5
5894	1
5895	1
5896	6
5897	4
5898	2
5899	2
5900	1
5901	5
5902	1
5903	1
5904	4
5905	2
5906	4
5907	5
5908	4
5909	0
5910	2
5911	3
5912	5
5913	3
5914	3
5915	1
5916	5
5917	8
5918	7
5919	2
5920	3
5921	1
5922	3
5923	3
5924	5
5925	2
5926	0
5927	2
5928	3
5929	2
5930	5
5931	4
5932	4
5933	4
5934	4
5935	1
5936	2
5937	2
5938	3
5939	2
5940	0
5941	2
5942	1
5943	3
5944	2
5945	8
5946	6
5947	2
5948	0
5949	4
5950	2
5951	5
5952	3
5953	3
5954	1
5955	3
5956	1
5957	1
5958	6
5959	3
5960	5
5961	1
5962	2
5963	5
5964	1
5965	8
5966	6
5967	0
5968	1
5969	0
5970	3
5971	6
5972	4
5973	1
5974	1
5975	4
5976	5
5977	5
5978	3
5979	2
5980	3
5981	2
5982	4
5983	4
5984	2
5985	3
5986	4
5987	2
5988	6
5989	1
5990	5
5991	5
5992	5
5993	3
5994	2
5995	1
5996	2
5997	4
5998	3
5999	1
6000	4
6001	2
6002	3
6003	6
6004	7
6005	2
6006	4
6007	2
6008	4
6009	4
6010	3
6011	5
6012	4
6013	4
6014	3
6015	2
6016	1
6017	2
6018	4
6019	2
6020	5
6021	1
6022	3
6023	0
6024	3
6025	1
6026	3
6027	3
6028	1
6029	1
6030	3
6031	5
6032	2
6033	2
6034	3
6035	0
6036	4
6037	2
6038	4
6039	2
6040	2
6041	5
6042	5
6043	1
6044	1
6045	2
6046	2
6047	2
6048	1
6049	1
6050	0
6051	5
6052	1
6053	0
6054	2
6055	2
6056	0
6057	2
6058	3
6059	3
6060	2
6061	0
6062	2
6063	2
6064	4
6065	3
6066	1
6067	5
6068	1
6069	0
6070	3
6071	2
6072	2
6073	3
6074	0
6075	2
6076	2
6077	0
6078	1
6079	1
6080	1
6081	1
6082	1
6083	1
6084	5
6085	3
6086	1
6087	1
6088	1
6089	1
6090	2
6091	0
6092	1
6093	6
6094	1
6095	3
6096	3
6097	1
6098	2
6099	1
6100	2
6101	3
6102	0
6103	1
6104	5
6105	2
6106	1
6107	0
6108	2
6109	4
6110	0
6111	0
6112	1
6113	0
6114	3
6115	4
6116	4
6117	0
6118	0
6119	1
6120	2
6121	1
6122	1
6123	3
6124	4
6125	4
6126	0
6127	0
6128	2
6129	0
6130	3
6131	4
6132	1
6133	1
6134	1
6135	2
6136	1
6137	1
6138	1
6139	1
6140	2
6141	2
6142	0
6143	2
6144	1
6145	2
6146	1
6147	2
6148	2
6149	1
6150	0
6151	3
6152	2
6153	1
6154	2
6155	3
6156	1
6157	1
6158	1
6159	1
6160	4
6161	2
6162	3
6163	2
6164	0
6165	2
6166	0
6167	0
6168	1
6169	0
6170	0
6171	0
6172	1
6173	0
6174	2
6175	0
6176	0
6177	1
6178	2
6179	1
6180	1
6181	0
6182	2
6183	2
6184	2
6185	3
6186	1
6187	2
6188	2
6189	2
6190	0
6191	3
6192	3
6193	2
6194	0
6195	0
6196	2
6197	1
6198	0
6199	3
6200	2
6201	0
6202	3
6203	1
6204	3
6205	0
6206	1
6207	3
6208	1
6209	4
6210	2
6211	1
6212	2
6213	2
6214	2
6215	1
6216	1
6217	0
6218	0
6219	2
6220	1
6221	2
6222	2
6223	0
6224	1
6225	1
6226	1
6227	1
6228	1
6229	0
6230	0
6231	1
6232	1
6233	0
6234	0
6235	0
6236	1
6237	0
6238	0
6239	2
6240	0
6241	0
6242	0
6243	2
6244	0
6245	0
6246	1
6247	0
6248	1
6249	0
6250	0
6251	2
6252	1
6253	0
6254	1
6255	2
6256	1
6257	0
6258	0
6259	2
6260	1
6261	0
6262	1
6263	0
6264	1
6265	0
6266	1
6267	0
6268	0
6269	0
6270	1
6271	0
6272	1
6273	1
6274	1
6275	0
6276	0
6277	1
6278	0
6279	0
6280	0
6281	1
6282	1
6283	1
6284	1
6285	0
6286	2
6287	0
6288	0
6289	0
6290	0
6291	1
6292	1
6293	1
6294	0
6295	1
6296	1
6297	0
6298	0
6299	3
6300	0
6301	0
6302	0
6303	1
6304	0
6305	1
6306	0
6307	0
6308	0
6309	1
6310	0
6311	0
6312	1
6313	1
6314	1
6315	1
6316	0
6317	0
6318	0
6319	0
6320	0
6321	0
6322	0
6323	1
6324	1
6325	0
6326	1
6327	0
6328	0
6329	0
6330	0
6331	2
6332	0
6333	0
6334	0
6335	0
6336	2
6337	0
6338	0
6339	1
6340	1
6341	0
6342	0
6343	0
6344	1
6345	0
6346	1
6347	0
6348	1
6349	2
6350	2
6351	0
6352	0
6353	0
6354	0
6355	2
6356	0
6357	0
6358	0
6359	0
6360	1
6361	0
6362	0
6363	0
6364	0
6365	0
6366	1
6367	2
6368	0
6369	0
6370	1
6371	0
6372	2
6373	1
6374	0
6375	1
6376	0
6377	0
6378	1
6379	1
6380	0
6381	0
6382	0
6383	1
6384	0
6385	1
6386	0
6387	0
6388	0
6389	0
6390	0
6391	0
6392	0
6393	0
6394	3
6395	1
6396	1
6397	1
6398	1
6399	0
6400	0
6401	0
6402	0
6403	0
6404	0
6405	0
6406	2
6407	0
6408	0
6409	1
6410	0
6411	0
6412	0
6413	0
6414	0
6415	1
6416	0
6417	0
6418	0
6419	0
6420	1
6421	0
6422	0
6423	0
6424	1
6425	1
6426	0
6427	1
6428	0
6429	0
6430	0
6431	0
6432	2
6433	0
6434	1
6435	0
6436	0
6437	1
6438	0
6439	0
6440	0
6441	1
6442	1
6443	0
6444	0
6445	0
6446	1
6447	0
6448	1
6449	0
6450	1
6451	1
6452	0
6453	0
6454	0
6455	0
6456	0
6457	1
6458	0
6459	0
6460	1
6461	0
6462	0
6463	1
6464	0
6465	1
6466	1
6467	0
6468	0
6469	0
6470	1
6471	0
6472	1
6473	0
6474	1
6475	0
6476	0
6477	0
6478	0
6479	0
6480	1
6481	1
6482	0
6483	0
6484	0
6485	0
6486	1
6487	0
6488	0
6489	0
6490	0
6491	0
6492	0
6493	1
6494	0
6495	1
6496	0
6497	2
6498	0
6499	0
6500	0
6501	1
6502	0
6503	0
6504	0
6505	1
6506	0
6507	0
6508	1
6509	0
6510	0
6511	0
6512	2
6513	2
6514	0
6515	1
6516	0
6517	0
6518	0
6519	0
6520	0
6521	0
6522	0
6523	1
6524	1
6525	0
6526	0
6527	1
6528	1
6529	0
6530	0
6531	0
6532	1
6533	0
6534	0
6535	1
6536	0
6537	1
6538	1
6539	0
6540	0
6541	1
6542	1
6543	0
6544	0
6545	0
6546	0
6547	0
6548	0
6549	0
6550	1
6551	4
6552	2
6553	5
6554	20
6555	18
6556	21
6557	51
6558	67
6559	78
6560	95
6561	70
6562	53
6563	41
6564	40
6565	12
6566	10
6567	8
6568	2
6569	1
6570	0
6571	0
6572	0
6573	0
6574	0
6575	0
6576	0
6577	0
6578	0
6579	0
6580	0
6581	0
6582	0
6583	0
6584	0
6585	0
6586	0
6587	0
6588	0
6589	1
6590	0
6591	0
6592	0
6593	0
6594	0
6595	0
6596	0
6597	0
6598	0
6599	0
6600	0
6601	0
6602	0
6603	1
6604	0
6605	0
6606	0
6607	0
6608	0
6609	0
6610	0
6611	0
6612	0
6613	0
6614	0
6615	0
6616	0
6617	0
6618	0
6619	0
6620	0
6621	0
6622	0
6623	1
6624	0
6625	0
6626	0
6627	0
6628	0
6629	0
6630	0
6631	0
6632	0
6633	1
6634	0
6635	0
6636	0
6637	0
6638	0
6639	0
6640	0
6641	0
6642	0
6643	0
6644	0
6645	0
6646	0
6647	0
6648	0
6649	0
6650	0
6651	0
6652	1
6653	0
6654	0
6655	1
6656	0
6657	0
6658	0
6659	0
6660	0
6661	0
6662	0
6663	0
6664	0
6665	0
6666	0
6667	0
6668	0
6669	0
6670	0
6671	0
6672	0
6673	0
6674	0
6675	0
6676	0
6677	0
6678	0
6679	0
6680	0
6681	0
6682	0
6683	0
6684	0
6685	0
6686	0
6687	0
6688	0
6689	0
6690	0
6691	1
6692	0
6693	1
6694	1
6695	0
6696	0
6697	0
6698	0
6699	0
6700	0
6701	0
6702	0
6703	0
6704	0
6705	0
6706	0
6707	0
6708	0
6709	0
6710	1
6711	0
6712	0
6713	1
6714	0
6715	0
6716	0
6717	0
6718	0
6719	0
6720	0
6721	0
6722	0
6723	0
6724	0
6725	0
6726	0
6727	0
6728	0
6729	0
6730	0
6731	0
6732	0
6733	0
6734	0
6735	0
6736	0
6737	0
6738	0
6739	0
6740	0
6741	0
6742	0
6743	0
6744	0
6745	0
6746	0
6747	0
6748	0
6749	0
6750	0
6751	0
6752	0
6753	0
6754	0
6755	0
6756	0
6757	0
6758	0
6759	0
6760	0
6761	0
6762	0
6763	0
6764	0
6765	0
6766	0
6767	0
6768	0
6769	1
6770	0
6771	0
6772	0
6773	0
6774	0
6775	0
6776	0
6777	0
6778	0
6779	0
6780	1
6781	0
6782	0
6783	0
6784	0
6785	0
6786	0
6787	0
6788	0
6789	0
6790	0
6791	0
6792	0
6793	0
6794	0
6795	0
6796	0
6797	0
6798	0
6799	0
6800	0
6801	0
6802	0
6803	0
6804	0
6805	0
6806	0
6807	0
6808	0
6809	0
6810	0
6811	0
6812	1
6813	0
6814	0
6815	0
6816	0
6817	0
6818	0
6819	0
6820	0
6821	0
6822	0
6823	0
6824	0
6825	0
6826	0
6827	0
6828	0
6829	0
6830	0
6831	0
6832	0
6833	0
6834	0
6835	0
6836	0
6837	0
6838	1
6839	0
6840	0
6841	0
6842	0
6843	1
6844	1
6845	1
6846	0
6847	1
6848	0
6849	0
6850	0
6851	0
6852	0
6853	0
6854	0
6855	0
6856	1
6857	0
6858	0
6859	0
6860	0
6861	0
6862	0
6863	0
6864	0
6865	0
6866	0
6867	0
6868	0
6869	0
6870	1
6871	0
6872	0
6873	0
6874	0
6875	0
6876	0
6877	0
6878	0
6879	0
6880	0
6881	0
6882	0
6883	0
6884	0
6885	0
6886	0
6887	0
6888	0
6889	0
6890	0
6891	0
6892	0
6893	0
6894	0
6895	0
6896	0
6897	0
6898	0
6899	0
6900	0
6901	0
6902	0
6903	0
6904	0
6905	0
6906	0
6907	0
6908	0
6909	0
6910	0
6911	0
6912	0
6913	0
6914	0
6915	0
6916	0
6917	0
6918	0
6919	0
6920	0
6921	0
6922	0
6923	0
6924	0
6925	0
6926	0
6927	0
6928	0
6929	0
6930	0
6931	0
6932	0
6933	0
6934	0
6935	0
6936	0
6937	0
6938	0
6939	0
6940	0
6941	0
6942	0
6943	0
6944	0
6945	0
6946	1
6947	0
6948	0
6949	0
6950	0
6951	0
6952	0
6953	0
6954	0
6955	0
6956	0
6957	0
6958	1
6959	0
6960	0
6961	0
6962	0
6963	0
6964	0
6965	0
6966	1
6967	0
6968	0
6969	0
6970	1
6971	0
6972	0
6973	0
6974	0
6975	0
6976	0
6977	0
6978	0
6979	0
6980	0
6981	0
6982	0
6983	0
6984	0
6985	0
6986	0
6987	0
6988	0
6989	0
6990	0
6991	0
6992	0
6993	0
6994	0
6995	0
6996	0
6997	0
6998	0
6999	0
7000	0
7001	0
7002	0
7003	0
7004	0
7005	0
7006	0
7007	0
7008	0
7009	0
7010	0
7011	0
7012	0
7013	0
7014	0
7015	0
7016	0
7017	0
7018	0
7019	0
7020	0
7021	0
7022	0
7023	0
7024	0
7025	0
7026	0
7027	0
7028	0
7029	1
7030	0
7031	0
7032	0
7033	0
7034	0
7035	0
7036	0
7037	0
7038	0
7039	0
7040	0
7041	0
7042	0
7043	0
7044	0
7045	0
7046	0
7047	0
7048	0
7049	0
7050	0
7051	0
7052	0
7053	0
7054	0
7055	0
7056	0
7057	0
7058	0
7059	0
7060	0
7061	0
7062	0
7063	0
7064	0
7065	0
7066	0
7067	0
7068	0
7069	1
7070	0
7071	0
7072	0
7073	0
7074	0
7075	0
7076	0
7077	0
7078	0
7079	0
7080	0
7081	0
7082	0
7083	0
7084	1
7085	1
7086	0
7087	0
7088	0
7089	0
7090	0
7091	0
7092	0
7093	0
7094	0
7095	0
7096	0
7097	0
7098	0
7099	0
7100	0
7101	0
7102	0
7103	0
7104	0
7105	0
7106	0
7107	0
7108	0
7109	0
7110	0
7111	0
7112	0
7113	0
7114	0
7115	0
7116	0
7117	0
7118	0
7119	0
7120	0
7121	0
7122	0
7123	0
7124	0
7125	0
7126	0
7127	0
7128	0
7129	0
7130	0
7131	0
7132	0
7133	0
7134	0
7135	0
7136	0
7137	0
7138	0
7139	0
7140	0
7141	0
7142	0
7143	0
7144	0
7145	0
7146	0
7147	0
7148	0
7149	0
7150	0
7151	0
7152	0
7153	0
7154	0
7155	0
7156	0
7157	0
7158	0
7159	0
7160	0
7161	0
7162	0
7163	0
7164	0
7165	0
7166	0
7167	0
7168	0
7169	0
7170	0
7171	0
7172	0
7173	0
7174	0
7175	0
7176	0
7177	0
7178	0
7179	0
7180	0
7181	0
7182	0
7183	0
7184	0
7185	0
7186	0
7187	0
7188	0
7189	0
7190	0
7191	0
7192	0
7193	0
7194	0
7195	0
7196	0
7197	0
7198	0
7199	0
7200	0
7201	0
7202	1
7203	0
7204	0
7205	0
7206	1
7207	0
7208	0
7209	0
7210	0
7211	0
7212	0
7213	0
7214	0
7215	0
7216	0
7217	0
7218	0
7219	0
7220	0
7221	0
7222	0
7223	0
7224	0
7225	0
7226	0
7227	0
7228	0
7229	0
7230	0
7231	0
7232	0
7233	0
7234	0
7235	0
7236	0
7237	0
7238	0
7239	0
7240	0
7241	0
7242	0
7243	0
7244	0
7245	0
7246	0
7247	0
7248	0
7249	0
7250	0
7251	0
7252	0
7253	1
7254	1
7255	0
7256	0
7257	0
7258	0
7259	0
7260	0
7261	0
7262	0
7263	0
7264	0
7265	0
7266	0
7267	0
7268	0
7269	0
7270	0
7271	0
7272	0
7273	1
7274	0
7275	0
7276	0
7277	0
7278	0
7279	0
7280	0
7281	0
7282	0
7283	0
7284	0
7285	0
7286	0
7287	0
7288	0
7289	0
7290	0
7291	0
7292	0
7293	0
7294	0
7295	0
7296	0
7297	0
7298	0
7299	0
7300	0
7301	0
7302	0
7303	0
7304	0
7305	1
7306	0
7307	0
7308	0
7309	0
7310	0
7311	0
7312	0
7313	0
7314	0
7315	0
7316	0
7317	0
7318	0
7319	0
7320	0
7321	0
7322	0
7323	0
7324	0
7325	0
7326	0
7327	0
7328	0
7329	0
7330	0
7331	0
7332	0
7333	0
7334	0
7335	0
7336	0
7337	0
7338	0
7339	0
7340	0
7341	0
7342	0
7343	0
7344	0
7345	0
7346	0
7347	0
7348	0
7349	0
7350	0
7351	0
7352	0
7353	0
7354	0
7355	0
7356	0
7357	0
7358	0
7359	0
7360	0
7361	0
7362	0
7363	0
7364	0
7365	0
7366	0
7367	0
7368	0
7369	0
7370	0
7371	0
7372	0
7373	0
7374	0
7375	0
7376	0
7377	0
7378	0
7379	0
7380	0
7381	0
7382	0
7383	0
7384	0
7385	0
7386	0
7387	0
7388	0
7389	0
7390	0
7391	0
7392	0
7393	0
7394	0
7395	0
7396	0
7397	0
7398	0
7399	0
7400	0
7401	0
7402	0
7403	0
7404	0
7405	0
7406	0
7407	0
7408	0
7409	0
7410	0
7411	0
7412	0
7413	0
7414	0
7415	0
7416	0
7417	0
7418	0
7419	0
7420	0
7421	0
7422	0
7423	0
7424	0
7425	0
7426	0
7427	0
7428	0
7429	0
7430	0
7431	0
7432	0
7433	0
7434	0
7435	0
7436	0
7437	0
7438	0
7439	0
7440	0
7441	0
7442	0
7443	0
7444	0
7445	0
7446	0
7447	0
7448	0
7449	0
7450	0
7451	1
7452	0
7453	0
7454	0
7455	0
7456	0
7457	0
7458	0
7459	0
7460	0
7461	0
7462	0
7463	0
7464	0
7465	0
7466	0
7467	0
7468	0
7469	0
7470	0
7471	0
7472	0
7473	0
7474	0
7475	0
7476	0
7477	0
7478	0
7479	0
7480	0
7481	0
7482	0
7483	0
7484	0
7485	0
7486	0
7487	0
7488	0
7489	0
7490	0
7491	0
7492	0
7493	0
7494	0
7495	0
7496	0
7497	0
7498	0
7499	0
7500	0
7501	0
7502	0
7503	0
7504	0
7505	0
7506	0
7507	0
7508	0
7509	0
7510	0
7511	0
7512	0
7513	0
7514	0
7515	0
7516	0
7517	0
7518	0
7519	0
7520	0
7521	0
7522	0
7523	0
7524	0
7525	1
7526	0
7527	0
7528	0
7529	0
7530	0
7531	0
7532	0
7533	0
7534	0
7535	0
7536	0
7537	0
7538	0
7539	0
7540	0
7541	0
7542	0
7543	0
7544	0
7545	0
7546	0
7547	0
7548	0
7549	0
7550	0
7551	0
7552	0
7553	0
7554	0
7555	0
7556	0
7557	0
7558	0
7559	0
7560	0
7561	0
7562	0
7563	0
7564	0
7565	0
7566	1
7567	0
7568	0
7569	0
7570	0
7571	0
7572	0
7573	0
7574	0
7575	1
7576	0
7577	0
7578	0
7579	0
7580	0
7581	0
7582	0
7583	0
7584	0
7585	0
7586	0
7587	0
7588	0
7589	0
7590	0
7591	0
7592	0
7593	0
7594	0
7595	0
7596	0
7597	0
7598	0
7599	0
7600	0
7601	0
7602	0
7603	0
7604	0
7605	0
7606	0
7607	0
7608	0
7609	0
7610	0
7611	0
7612	0
7613	0
7614	0
7615	0
7616	0
7617	0
7618	0
7619	0
7620	0
7621	0
7622	0
7623	0
7624	0
7625	0
7626	1
7627	0
7628	0
7629	0
7630	0
7631	0
7632	0
7633	0
7634	0
7635	0
7636	0
7637	0
7638	0
7639	0
7640	0
7641	0
7642	0
7643	0
7644	0
7645	0
7646	0
7647	0
7648	0
7649	0
7650	0
7651	0
7652	0
7653	0
7654	0
7655	0
7656	0
7657	0
7658	0
7659	0
7660	0
7661	0
7662	0
7663	0
7664	0
7665	0
7666	0
7667	0
7668	0
7669	0
7670	0
7671	0
7672	0
7673	0
7674	0
7675	0
7676	0
7677	0
7678	0
7679	0
7680	0
7681	0
7682	0
7683	0
7684	0
7685	0
7686	0
7687	0
7688	0
7689	0
7690	0
7691	0
7692	0
7693	0
7694	0
7695	0
7696	0
7697	0
7698	0
7699	0
7700	0
7701	0
7702	0
7703	0
7704	0
7705	0
7706	0
7707	0
7708	0
7709	0
7710	0
7711	0
7712	0
7713	0
7714	0
7715	0
7716	0
7717	0
7718	0
7719	0
7720	0
7721	0
7722	0
7723	0
7724	0
7725	0
7726	0
7727	0
7728	0
7729	0
7730	0
7731	0
7732	0
7733	0
7734	0
7735	0
7736	0
7737	0
7738	0
7739	0
7740	0
7741	0
7742	0
7743	0
7744	0
7745	0
7746	0
7747	0
7748	0
7749	0
7750	0
7751	0
7752	0
7753	0
7754	0
7755	0
7756	0
7757	0
7758	0
7759	0
7760	0
7761	0
7762	0
7763	0
7764	0
7765	0
7766	0
7767	0
7768	0
7769	0
7770	0
7771	0
7772	0
7773	0
7774	0
7775	1
7776	0
7777	0
7778	0
7779	0
7780	0
7781	0
7782	0
7783	0
7784	0
7785	0
7786	0
7787	0
7788	0
7789	0
7790	0
7791	0
7792	0
7793	0
7794	0
7795	0
7796	0
7797	0
7798	0
7799	0
7800	0
7801	0
7802	0
7803	0
7804	0
7805	0
7806	0
7807	0
7808	0
7809	0
7810	0
7811	0
7812	0
7813	0
7814	0
7815	0
7816	0
7817	0
7818	0
7819	0
7820	0
7821	0
7822	0
7823	0
7824	0
7825	0
7826	0
7827	0
7828	0
7829	0
7830	0
7831	0
7832	0
7833	0
7834	0
7835	0
7836	0
7837	0
7838	0
7839	0
7840	0
7841	0
7842	0
7843	0
7844	0
7845	0
7846	0
7847	0
7848	0
7849	0
7850	0
7851	0
7852	0
7853	0
7854	0
7855	0
7856	0
7857	0
7858	0
7859	0
7860	0
7861	0
7862	0
7863	0
7864	0
7865	0
7866	0
7867	0
7868	1
7869	0
7870	0
7871	0
7872	0
7873	1
7874	0
7875	0
7876	0
7877	0
7878	0
7879	0
7880	0
7881	0
7882	0
7883	0
7884	0
7885	0
7886	0
7887	0
7888	0
7889	0
7890	0
7891	0
7892	0
7893	0
7894	0
7895	0
7896	0
7897	0
7898	0
7899	0
7900	0
7901	0
7902	0
7903	0
7904	0
7905	0
7906	0
7907	0
7908	0
7909	0
7910	0
7911	0
7912	0
7913	0
7914	0
7915	0
7916	0
7917	0
7918	0
7919	0
7920	0
7921	0
7922	0
7923	0
7924	0
7925	0
7926	0
7927	0
7928	0
7929	0
7930	0
7931	0
7932	0
7933	0
7934	1
7935	0
7936	0
7937	0
7938	0
7939	0
7940	0
7941	0
7942	0
7943	0
7944	0
7945	0
7946	0
7947	0
7948	0
7949	0
7950	0
7951	0
7952	0
7953	0
7954	0
7955	0
7956	0
7957	0
7958	0
7959	0
7960	0
7961	0
7962	0
7963	0
7964	0
7965	0
7966	0
7967	0
7968	0
7969	0
7970	0
7971	0
7972	0
7973	0
7974	0
7975	0
7976	0
7977	0
7978	0
7979	0
7980	0
7981	0
7982	0
7983	0
7984	0
7985	0
7986	0
7987	0
7988	0
7989	0
7990	0
7991	0
7992	0
7993	0
7994	0
7995	0
7996	0
7997	0
7998	0
7999	0
8000	0
8001	0
8002	0
8003	0
8004	0
8005	0
8006	0
8007	0
8008	0
8009	0
8010	0
8011	0
8012	0
8013	0
8014	0
8015	0
8016	0
8017	0
8018	0
8019	0
8020	0
8021	0
8022	0
8023	0
8024	0
8025	0
8026	0
8027	0
8028	0
8029	0
8030	0
8031	0
8032	0
8033	0
8034	0
8035	0
8036	0
8037	0
8038	0
8039	0
8040	0
8041	0
8042	0
8043	0
8044	0
8045	0
8046	0
8047	0
8048	0
8049	0
8050	0
8051	0
8052	0
8053	0
8054	0
8055	0
8056	0
8057	0
8058	0
8059	0
8060	0
8061	0
8062	0
8063	0
8064	0
8065	0
8066	0
8067	0
8068	0
8069	0
8070	0
8071	0
8072	0
8073	0
8074	0
8075	0
8076	0
8077	0
8078	0
8079	0
8080	0
8081	0
8082	0
8083	0
8084	0
8085	0
8086	0
8087	0
8088	0
8089	0
8090	0
8091	0
8092	0
8093	0
8094	0
8095	0
8096	0
8097	0
8098	0
8099	0
8100	0
8101	0
8102	0
8103	0
8104	0
8105	0
8106	0
8107	0
8108	0
8109	0
8110	0
8111	0
8112	0
8113	0
8114	0
8115	0
8116	0
8117	0
8118	0
8119	0
8120	0
8121	0
8122	0
8123	0
8124	0
8125	0
8126	0
8127	0
8128	0
8129	0
8130	0
8131	0
8132	0
8133	0
8134	0
8135	0
8136	0
8137	0
8138	0
8139	0
8140	0
8141	0
8142	0
8143	0
8144	0
8145	0
8146	0
8147	0
8148	0
8149	0
8150	0
8151	0
8152	0
8153	0
8154	0
8155	0
8156	0
8157	0
8158	0
8159	0
8160	0
8161	0
8162	0
8163	0
8164	0
8165	0
8166	0
8167	0
8168	0
8169	0
8170	0
8171	0
8172	0
8173	0
8174	0
8175	0
8176	0
8177	0
8178	0
8179	0
8180	0
8181	0
8182	0
8183	0
8184	0
8185	0
8186	0
8187	0
8188	0
8189	0
8190	0
8191	0
