0	0
1	0
2	0
3	0
4	0
5	0
6	0
7	0
8	0
9	0
10	0
11	0
12	0
13	0
14	0
15	0
16	0
17	0
18	0
19	0
20	0
21	0
22	0
23	0
24	0
25	0
26	0
27	0
28	0
29	0
30	0
31	0
32	0
33	0
34	0
35	0
36	0
37	0
38	0
39	0
40	0
41	0
42	0
43	0
44	0
45	0
46	0
47	0
48	0
49	0
50	0
51	0
52	0
53	0
54	0
55	0
56	0
57	0
58	0
59	0
60	0
61	0
62	0
63	0
64	0
65	0
66	0
67	0
68	0
69	0
70	0
71	0
72	0
73	0
74	0
75	0
76	0
77	0
78	0
79	0
80	0
81	0
82	0
83	0
84	0
85	0
86	0
87	0
88	0
89	0
90	0
91	0
92	0
93	0
94	0
95	0
96	0
97	0
98	0
99	0
100	0
101	0
102	0
103	0
104	0
105	0
106	0
107	0
108	0
109	0
110	0
111	0
112	0
113	0
114	0
115	0
116	0
117	1
118	65
119	298
120	509
121	663
122	635
123	635
124	625
125	622
126	616
127	604
128	602
129	582
130	622
131	594
132	630
133	581
134	584
135	619
136	549
137	594
138	574
139	582
140	555
141	606
142	514
143	549
144	543
145	599
146	569
147	549
148	531
149	582
150	553
151	547
152	565
153	569
154	554
155	564
156	523
157	524
158	558
159	576
160	536
161	519
162	559
163	576
164	548
165	539
166	532
167	550
168	474
169	496
170	467
171	505
172	550
173	510
174	522
175	509
176	530
177	489
178	484
179	520
180	486
181	505
182	454
183	496
184	530
185	528
186	504
187	499
188	522
189	501
190	484
191	515
192	492
193	492
194	517
195	479
196	473
197	495
198	499
199	464
200	497
201	485
202	487
203	522
204	521
205	502
206	495
207	494
208	446
209	483
210	464
211	524
212	491
213	492
214	472
215	467
216	486
217	492
218	523
219	500
220	485
221	480
222	491
223	481
224	507
225	469
226	522
227	458
228	498
229	470
230	516
231	490
232	493
233	476
234	496
235	494
236	455
237	503
238	498
239	433
240	482
241	462
242	493
243	511
244	475
245	488
246	454
247	507
248	502
249	504
250	474
251	505
252	473
253	496
254	456
255	464
256	518
257	494
258	502
259	481
260	504
261	458
262	492
263	459
264	446
265	441
266	485
267	430
268	470
269	476
270	477
271	478
272	464
273	449
274	471
275	477
276	452
277	464
278	489
279	471
280	462
281	457
282	463
283	499
284	475
285	472
286	462
287	496
288	482
289	486
290	480
291	470
292	473
293	456
294	473
295	511
296	499
297	458
298	467
299	467
300	432
301	490
302	470
303	456
304	484
305	506
306	500
307	432
308	483
309	455
310	506
311	455
312	492
313	435
314	466
315	462
316	439
317	464
318	481
319	458
320	496
321	478
322	461
323	452
324	513
325	474
326	480
327	479
328	455
329	438
330	444
331	480
332	486
333	459
334	499
335	450
336	526
337	438
338	463
339	463
340	466
341	451
342	431
343	518
344	453
345	469
346	455
347	512
348	455
349	469
350	482
351	507
352	439
353	420
354	493
355	483
356	448
357	503
358	481
359	508
360	485
361	464
362	466
363	451
364	437
365	506
366	501
367	474
368	477
369	485
370	505
371	468
372	478
373	468
374	476
375	481
376	503
377	484
378	490
379	503
380	559
381	625
382	771
383	941
384	1067
385	1020
386	745
387	584
388	508
389	557
390	476
391	474
392	497
393	519
394	500
395	520
396	489
397	497
398	453
399	541
400	520
401	498
402	519
403	472
404	507
405	468
406	467
407	468
408	525
409	512
410	505
411	495
412	509
413	475
414	525
415	483
416	509
417	468
418	481
419	467
420	532
421	565
422	545
423	519
424	503
425	485
426	432
427	477
428	528
429	489
430	471
431	472
432	518
433	470
434	490
435	494
436	470
437	479
438	511
439	512
440	477
441	500
442	484
443	487
444	480
445	524
446	470
447	443
448	497
449	474
450	467
451	503
452	488
453	510
454	432
455	472
456	507
457	516
458	505
459	514
460	533
461	502
462	463
463	487
464	486
465	441
466	511
467	490
468	478
469	478
470	485
471	494
472	474
473	483
474	461
475	481
476	458
477	483
478	496
479	522
480	488
481	507
482	459
483	427
484	491
485	476
486	458
487	489
488	512
489	495
490	467
491	480
492	465
493	473
494	509
495	502
496	497
497	485
498	470
499	506
500	479
501	501
502	501
503	487
504	520
505	514
506	508
507	538
508	489
509	530
510	518
511	521
512	532
513	542
514	507
515	562
516	529
517	523
518	522
519	586
520	530
521	517
522	530
523	513
524	585
525	537
526	522
527	523
528	515
529	527
530	568
531	533
532	543
533	531
534	532
535	537
536	585
537	544
538	543
539	526
540	572
541	593
542	598
543	576
544	589
545	578
546	603
547	588
548	561
549	634
550	542
551	613
552	579
553	629
554	628
555	600
556	649
557	619
558	602
559	679
560	650
561	622
562	626
563	598
564	595
565	678
566	641
567	612
568	628
569	644
570	581
571	611
572	580
573	651
574	576
575	617
576	596
577	621
578	598
579	626
580	594
581	599
582	624
583	634
584	639
585	565
586	628
587	564
588	612
589	608
590	590
591	532
592	588
593	591
594	597
595	565
596	547
597	600
598	551
599	530
600	524
601	566
602	564
603	561
604	595
605	580
606	546
607	556
608	560
609	536
610	613
611	584
612	591
613	594
614	596
615	567
616	569
617	603
618	615
619	617
620	597
621	612
622	552
623	572
624	612
625	625
626	613
627	632
628	645
629	628
630	601
631	620
632	644
633	632
634	650
635	609
636	584
637	585
638	601
639	604
640	575
641	572
642	627
643	591
644	567
645	550
646	640
647	585
648	605
649	572
650	581
651	603
652	606
653	571
654	567
655	598
656	569
657	582
658	585
659	563
660	605
661	556
662	584
663	557
664	607
665	539
666	547
667	530
668	546
669	573
670	567
671	571
672	576
673	577
674	520
675	516
676	572
677	511
678	529
679	536
680	570
681	519
682	522
683	552
684	529
685	530
686	548
687	549
688	531
689	521
690	513
691	508
692	504
693	518
694	502
695	514
696	495
697	527
698	501
699	489
700	554
701	504
702	488
703	519
704	496
705	514
706	475
707	515
708	501
709	492
710	504
711	496
712	499
713	537
714	523
715	515
716	501
717	516
718	507
719	477
720	530
721	483
722	514
723	504
724	528
725	507
726	456
727	446
728	501
729	498
730	513
731	487
732	498
733	480
734	488
735	489
736	497
737	486
738	493
739	476
740	521
741	503
742	523
743	472
744	492
745	489
746	506
747	518
748	509
749	463
750	447
751	471
752	453
753	452
754	479
755	463
756	483
757	489
758	487
759	475
760	491
761	484
762	494
763	462
764	477
765	480
766	509
767	494
768	481
769	482
770	482
771	513
772	490
773	468
774	509
775	504
776	489
777	469
778	468
779	467
780	461
781	500
782	467
783	476
784	506
785	501
786	498
787	473
788	462
789	480
790	482
791	488
792	415
793	464
794	473
795	490
796	471
797	491
798	470
799	454
800	452
801	496
802	465
803	501
804	484
805	440
806	438
807	444
808	420
809	482
810	445
811	477
812	458
813	458
814	469
815	478
816	450
817	457
818	507
819	443
820	426
821	468
822	500
823	525
824	480
825	497
826	489
827	422
828	476
829	420
830	478
831	488
832	452
833	470
834	485
835	447
836	468
837	463
838	474
839	470
840	469
841	482
842	452
843	487
844	481
845	471
846	463
847	462
848	475
849	497
850	511
851	479
852	459
853	465
854	502
855	446
856	486
857	464
858	448
859	476
860	472
861	488
862	481
863	473
864	460
865	435
866	476
867	453
868	481
869	426
870	462
871	508
872	503
873	478
874	450
875	491
876	471
877	520
878	492
879	496
880	476
881	422
882	444
883	524
884	484
885	451
886	450
887	479
888	494
889	498
890	417
891	452
892	460
893	429
894	443
895	434
896	475
897	493
898	447
899	438
900	476
901	479
902	487
903	532
904	467
905	444
906	441
907	448
908	485
909	486
910	465
911	457
912	421
913	464
914	468
915	484
916	461
917	455
918	453
919	448
920	473
921	498
922	447
923	468
924	460
925	478
926	485
927	434
928	518
929	452
930	467
931	444
932	484
933	438
934	427
935	454
936	445
937	493
938	468
939	462
940	442
941	446
942	482
943	448
944	445
945	457
946	475
947	434
948	424
949	442
950	456
951	439
952	439
953	432
954	473
955	446
956	434
957	431
958	442
959	413
960	418
961	450
962	400
963	443
964	438
965	429
966	427
967	434
968	432
969	423
970	412
971	459
972	380
973	450
974	429
975	407
976	416
977	451
978	383
979	377
980	400
981	421
982	412
983	414
984	458
985	455
986	418
987	471
988	410
989	409
990	407
991	422
992	412
993	393
994	448
995	414
996	424
997	426
998	415
999	413
1000	399
1001	411
1002	430
1003	391
1004	410
1005	394
1006	407
1007	411
1008	451
1009	436
1010	380
1011	432
1012	410
1013	404
1014	427
1015	427
1016	418
1017	414
1018	398
1019	400
1020	407
1021	390
1022	431
1023	376
1024	407
1025	435
1026	422
1027	362
1028	431
1029	414
1030	402
1031	428
1032	449
1033	400
1034	405
1035	391
1036	407
1037	410
1038	392
1039	398
1040	406
1041	435
1042	412
1043	444
1044	396
1045	405
1046	376
1047	388
1048	415
1049	398
1050	382
1051	381
1052	379
1053	455
1054	404
1055	378
1056	418
1057	387
1058	417
1059	391
1060	418
1061	394
1062	398
1063	427
1064	411
1065	420
1066	438
1067	389
1068	388
1069	414
1070	415
1071	413
1072	401
1073	394
1074	428
1075	415
1076	413
1077	399
1078	375
1079	379
1080	440
1081	385
1082	416
1083	393
1084	388
1085	398
1086	417
1087	415
1088	398
1089	412
1090	434
1091	399
1092	398
1093	415
1094	372
1095	452
1096	404
1097	428
1098	411
1099	402
1100	422
1101	412
1102	398
1103	379
1104	398
1105	351
1106	433
1107	391
1108	437
1109	403
1110	402
1111	384
1112	413
1113	417
1114	380
1115	413
1116	427
1117	434
1118	407
1119	438
1120	420
1121	389
1122	392
1123	420
1124	399
1125	433
1126	405
1127	397
1128	436
1129	413
1130	433
1131	411
1132	431
1133	385
1134	401
1135	421
1136	429
1137	450
1138	386
1139	423
1140	411
1141	396
1142	410
1143	411
1144	429
1145	387
1146	435
1147	403
1148	416
1149	450
1150	419
1151	419
1152	398
1153	451
1154	451
1155	401
1156	455
1157	427
1158	424
1159	411
1160	405
1161	409
1162	402
1163	444
1164	435
1165	450
1166	426
1167	439
1168	422
1169	434
1170	413
1171	419
1172	454
1173	455
1174	425
1175	409
1176	432
1177	463
1178	434
1179	401
1180	432
1181	458
1182	410
1183	433
1184	381
1185	427
1186	391
1187	429
1188	412
1189	444
1190	459
1191	443
1192	445
1193	503
1194	438
1195	505
1196	428
1197	440
1198	437
1199	460
1200	485
1201	426
1202	420
1203	403
1204	465
1205	457
1206	483
1207	418
1208	445
1209	474
1210	449
1211	495
1212	456
1213	470
1214	467
1215	475
1216	476
1217	491
1218	431
1219	465
1220	482
1221	479
1222	484
1223	455
1224	462
1225	424
1226	477
1227	468
1228	456
1229	462
1230	495
1231	464
1232	465
1233	493
1234	490
1235	483
1236	481
1237	471
1238	516
1239	465
1240	422
1241	469
1242	440
1243	471
1244	459
1245	454
1246	447
1247	453
1248	467
1249	464
1250	533
1251	473
1252	477
1253	505
1254	509
1255	480
1256	473
1257	456
1258	492
1259	472
1260	500
1261	522
1262	475
1263	517
1264	508
1265	523
1266	479
1267	519
1268	513
1269	532
1270	472
1271	449
1272	488
1273	480
1274	518
1275	520
1276	495
1277	500
1278	490
1279	482
1280	509
1281	477
1282	473
1283	469
1284	486
1285	504
1286	492
1287	453
1288	490
1289	544
1290	489
1291	488
1292	474
1293	513
1294	467
1295	512
1296	501
1297	450
1298	466
1299	459
1300	465
1301	517
1302	455
1303	464
1304	406
1305	442
1306	410
1307	431
1308	402
1309	377
1310	397
1311	370
1312	402
1313	378
1314	370
1315	369
1316	372
1317	359
1318	345
1319	353
1320	339
1321	320
1322	337
1323	360
1324	321
1325	346
1326	365
1327	309
1328	356
1329	291
1330	341
1331	360
1332	364
1333	338
1334	315
1335	328
1336	343
1337	321
1338	290
1339	335
1340	347
1341	322
1342	326
1343	326
1344	355
1345	305
1346	320
1347	333
1348	316
1349	331
1350	291
1351	330
1352	332
1353	331
1354	319
1355	316
1356	296
1357	313
1358	312
1359	280
1360	310
1361	294
1362	300
1363	295
1364	325
1365	305
1366	332
1367	298
1368	328
1369	286
1370	326
1371	307
1372	273
1373	301
1374	273
1375	285
1376	308
1377	292
1378	302
1379	321
1380	334
1381	341
1382	393
1383	487
1384	681
1385	931
1386	1416
1387	1918
1388	2630
1389	3285
1390	3767
1391	3995
1392	3759
1393	3346
1394	2562
1395	1739
1396	1317
1397	889
1398	596
1399	412
1400	329
1401	323
1402	257
1403	276
1404	238
1405	281
1406	276
1407	307
1408	274
1409	241
1410	257
1411	244
1412	265
1413	277
1414	264
1415	247
1416	246
1417	263
1418	242
1419	238
1420	262
1421	222
1422	226
1423	252
1424	253
1425	262
1426	275
1427	232
1428	250
1429	251
1430	240
1431	240
1432	242
1433	260
1434	254
1435	252
1436	217
1437	236
1438	227
1439	254
1440	217
1441	230
1442	254
1443	260
1444	249
1445	239
1446	220
1447	233
1448	252
1449	231
1450	241
1451	225
1452	251
1453	234
1454	228
1455	239
1456	213
1457	218
1458	192
1459	221
1460	243
1461	199
1462	236
1463	220
1464	193
1465	234
1466	206
1467	209
1468	205
1469	229
1470	232
1471	214
1472	227
1473	203
1474	228
1475	219
1476	246
1477	205
1478	223
1479	206
1480	233
1481	207
1482	199
1483	194
1484	205
1485	201
1486	197
1487	219
1488	200
1489	244
1490	202
1491	210
1492	199
1493	197
1494	214
1495	209
1496	208
1497	217
1498	172
1499	193
1500	178
1501	205
1502	213
1503	184
1504	208
1505	198
1506	220
1507	185
1508	168
1509	197
1510	162
1511	187
1512	192
1513	213
1514	184
1515	177
1516	196
1517	186
1518	187
1519	198
1520	187
1521	207
1522	173
1523	183
1524	216
1525	180
1526	198
1527	219
1528	217
1529	167
1530	203
1531	190
1532	189
1533	181
1534	181
1535	175
1536	181
1537	181
1538	182
1539	214
1540	178
1541	231
1542	204
1543	199
1544	219
1545	179
1546	181
1547	194
1548	210
1549	198
1550	181
1551	180
1552	182
1553	198
1554	172
1555	188
1556	187
1557	175
1558	186
1559	175
1560	202
1561	188
1562	188
1563	187
1564	187
1565	212
1566	181
1567	187
1568	186
1569	198
1570	175
1571	192
1572	184
1573	180
1574	220
1575	180
1576	196
1577	175
1578	179
1579	178
1580	164
1581	184
1582	183
1583	184
1584	170
1585	166
1586	175
1587	159
1588	171
1589	208
1590	174
1591	187
1592	179
1593	185
1594	176
1595	178
1596	194
1597	173
1598	171
1599	184
1600	177
1601	195
1602	177
1603	162
1604	182
1605	197
1606	172
1607	184
1608	175
1609	179
1610	187
1611	211
1612	188
1613	201
1614	182
1615	213
1616	165
1617	176
1618	210
1619	188
1620	161
1621	158
1622	184
1623	173
1624	173
1625	181
1626	184
1627	215
1628	179
1629	197
1630	172
1631	166
1632	167
1633	198
1634	187
1635	183
1636	187
1637	172
1638	179
1639	181
1640	173
1641	206
1642	182
1643	163
1644	190
1645	174
1646	206
1647	200
1648	183
1649	157
1650	177
1651	152
1652	180
1653	184
1654	164
1655	189
1656	169
1657	205
1658	174
1659	183
1660	197
1661	199
1662	171
1663	192
1664	164
1665	203
1666	168
1667	190
1668	186
1669	159
1670	179
1671	178
1672	185
1673	199
1674	187
1675	168
1676	163
1677	188
1678	147
1679	186
1680	177
1681	182
1682	197
1683	193
1684	157
1685	192
1686	170
1687	161
1688	191
1689	213
1690	190
1691	158
1692	169
1693	183
1694	188
1695	146
1696	155
1697	183
1698	176
1699	146
1700	183
1701	174
1702	171
1703	189
1704	171
1705	161
1706	152
1707	176
1708	173
1709	179
1710	173
1711	180
1712	187
1713	166
1714	179
1715	202
1716	197
1717	171
1718	173
1719	177
1720	182
1721	171
1722	205
1723	169
1724	169
1725	193
1726	182
1727	194
1728	171
1729	189
1730	183
1731	185
1732	192
1733	183
1734	173
1735	191
1736	185
1737	162
1738	177
1739	179
1740	182
1741	192
1742	187
1743	173
1744	171
1745	141
1746	178
1747	210
1748	165
1749	188
1750	183
1751	143
1752	182
1753	192
1754	207
1755	187
1756	179
1757	191
1758	189
1759	175
1760	185
1761	175
1762	206
1763	165
1764	185
1765	182
1766	186
1767	188
1768	187
1769	184
1770	185
1771	214
1772	194
1773	215
1774	312
1775	502
1776	1061
1777	2492
1778	6073
1779	12261
1780	19458
1781	23771
1782	22534
1783	16001
1784	8461
1785	3334
1786	993
1787	300
1788	181
1789	183
1790	145
1791	156
1792	155
1793	168
1794	152
1795	148
1796	149
1797	144
1798	142
1799	133
1800	150
1801	129
1802	130
1803	163
1804	137
1805	154
1806	147
1807	145
1808	145
1809	126
1810	120
1811	136
1812	142
1813	154
1814	142
1815	129
1816	154
1817	164
1818	145
1819	127
1820	141
1821	135
1822	145
1823	157
1824	131
1825	148
1826	127
1827	145
1828	137
1829	147
1830	158
1831	141
1832	138
1833	126
1834	144
1835	129
1836	144
1837	138
1838	157
1839	152
1840	140
1841	141
1842	145
1843	165
1844	138
1845	153
1846	146
1847	130
1848	133
1849	133
1850	138
1851	136
1852	138
1853	150
1854	125
1855	158
1856	143
1857	125
1858	143
1859	145
1860	140
1861	150
1862	156
1863	153
1864	151
1865	140
1866	135
1867	128
1868	150
1869	142
1870	147
1871	168
1872	143
1873	152
1874	145
1875	124
1876	139
1877	138
1878	128
1879	122
1880	144
1881	147
1882	130
1883	132
1884	168
1885	144
1886	161
1887	127
1888	118
1889	161
1890	143
1891	145
1892	146
1893	135
1894	145
1895	180
1896	150
1897	151
1898	146
1899	120
1900	159
1901	118
1902	127
1903	148
1904	156
1905	148
1906	159
1907	146
1908	147
1909	143
1910	128
1911	145
1912	152
1913	132
1914	131
1915	156
1916	161
1917	153
1918	158
1919	138
1920	152
1921	137
1922	137
1923	150
1924	149
1925	152
1926	130
1927	116
1928	141
1929	152
1930	157
1931	176
1932	150
1933	151
1934	145
1935	180
1936	141
1937	141
1938	141
1939	140
1940	141
1941	145
1942	134
1943	133
1944	132
1945	152
1946	157
1947	133
1948	157
1949	144
1950	140
1951	141
1952	145
1953	142
1954	129
1955	151
1956	141
1957	142
1958	140
1959	168
1960	159
1961	131
1962	150
1963	144
1964	143
1965	152
1966	162
1967	177
1968	144
1969	160
1970	158
1971	150
1972	138
1973	129
1974	140
1975	126
1976	138
1977	137
1978	158
1979	161
1980	142
1981	131
1982	116
1983	166
1984	128
1985	155
1986	153
1987	137
1988	137
1989	161
1990	141
1991	147
1992	148
1993	154
1994	151
1995	171
1996	158
1997	150
1998	159
1999	156
2000	154
2001	135
2002	163
2003	176
2004	177
2005	149
2006	139
2007	143
2008	148
2009	139
2010	145
2011	155
2012	149
2013	138
2014	159
2015	147
2016	148
2017	151
2018	149
2019	131
2020	141
2021	154
2022	130
2023	156
2024	137
2025	165
2026	172
2027	133
2028	159
2029	147
2030	143
2031	163
2032	137
2033	138
2034	136
2035	160
2036	144
2037	159
2038	172
2039	138
2040	134
2041	174
2042	154
2043	128
2044	157
2045	155
2046	145
2047	151
2048	154
2049	156
2050	129
2051	135
2052	126
2053	176
2054	148
2055	158
2056	152
2057	159
2058	173
2059	157
2060	143
2061	149
2062	169
2063	150
2064	133
2065	153
2066	147
2067	132
2068	161
2069	171
2070	184
2071	156
2072	191
2073	165
2074	159
2075	178
2076	156
2077	149
2078	145
2079	152
2080	138
2081	129
2082	153
2083	150
2084	138
2085	136
2086	156
2087	144
2088	166
2089	165
2090	168
2091	165
2092	153
2093	161
2094	159
2095	143
2096	170
2097	142
2098	182
2099	157
2100	162
2101	157
2102	145
2103	157
2104	135
2105	152
2106	167
2107	159
2108	159
2109	144
2110	156
2111	135
2112	156
2113	142
2114	136
2115	154
2116	143
2117	160
2118	160
2119	164
2120	175
2121	140
2122	157
2123	148
2124	144
2125	158
2126	153
2127	162
2128	150
2129	154
2130	145
2131	156
2132	177
2133	159
2134	156
2135	150
2136	145
2137	134
2138	145
2139	163
2140	179
2141	175
2142	145
2143	166
2144	179
2145	175
2146	175
2147	171
2148	158
2149	162
2150	140
2151	170
2152	154
2153	158
2154	147
2155	139
2156	179
2157	145
2158	150
2159	178
2160	160
2161	148
2162	167
2163	181
2164	149
2165	165
2166	190
2167	165
2168	150
2169	162
2170	171
2171	171
2172	163
2173	178
2174	151
2175	174
2176	154
2177	175
2178	171
2179	164
2180	167
2181	174
2182	159
2183	155
2184	180
2185	161
2186	160
2187	167
2188	165
2189	168
2190	175
2191	163
2192	192
2193	196
2194	196
2195	190
2196	170
2197	188
2198	179
2199	179
2200	203
2201	158
2202	162
2203	166
2204	169
2205	154
2206	164
2207	159
2208	167
2209	186
2210	168
2211	174
2212	166
2213	173
2214	176
2215	159
2216	163
2217	169
2218	170
2219	173
2220	153
2221	157
2222	150
2223	181
2224	171
2225	166
2226	146
2227	181
2228	151
2229	171
2230	145
2231	178
2232	175
2233	166
2234	157
2235	168
2236	175
2237	159
2238	180
2239	160
2240	146
2241	169
2242	181
2243	168
2244	174
2245	187
2246	164
2247	163
2248	184
2249	172
2250	193
2251	186
2252	177
2253	188
2254	166
2255	186
2256	165
2257	179
2258	168
2259	168
2260	179
2261	187
2262	167
2263	196
2264	184
2265	155
2266	175
2267	164
2268	163
2269	166
2270	178
2271	177
2272	164
2273	159
2274	212
2275	181
2276	178
2277	181
2278	163
2279	195
2280	174
2281	174
2282	178
2283	185
2284	165
2285	187
2286	155
2287	188
2288	181
2289	179
2290	178
2291	167
2292	171
2293	177
2294	174
2295	204
2296	154
2297	167
2298	170
2299	181
2300	194
2301	181
2302	192
2303	197
2304	177
2305	188
2306	179
2307	209
2308	193
2309	182
2310	219
2311	168
2312	203
2313	190
2314	170
2315	181
2316	172
2317	173
2318	184
2319	182
2320	177
2321	177
2322	172
2323	208
2324	200
2325	183
2326	174
2327	199
2328	185
2329	176
2330	222
2331	193
2332	171
2333	185
2334	193
2335	175
2336	200
2337	200
2338	177
2339	170
2340	196
2341	211
2342	198
2343	191
2344	186
2345	203
2346	213
2347	203
2348	210
2349	196
2350	226
2351	217
2352	188
2353	204
2354	199
2355	180
2356	192
2357	181
2358	198
2359	207
2360	203
2361	222
2362	197
2363	186
2364	188
2365	222
2366	202
2367	225
2368	183
2369	184
2370	202
2371	204
2372	197
2373	220
2374	185
2375	208
2376	205
2377	194
2378	230
2379	193
2380	209
2381	210
2382	210
2383	187
2384	212
2385	210
2386	208
2387	200
2388	211
2389	205
2390	199
2391	211
2392	202
2393	217
2394	195
2395	194
2396	209
2397	208
2398	211
2399	222
2400	203
2401	204
2402	219
2403	170
2404	208
2405	193
2406	206
2407	214
2408	243
2409	227
2410	212
2411	230
2412	234
2413	242
2414	208
2415	211
2416	229
2417	230
2418	216
2419	231
2420	250
2421	244
2422	189
2423	203
2424	209
2425	237
2426	260
2427	204
2428	192
2429	186
2430	203
2431	213
2432	225
2433	217
2434	215
2435	213
2436	203
2437	227
2438	214
2439	243
2440	210
2441	230
2442	237
2443	222
2444	229
2445	197
2446	232
2447	208
2448	183
2449	212
2450	211
2451	246
2452	200
2453	237
2454	235
2455	211
2456	230
2457	226
2458	246
2459	233
2460	229
2461	220
2462	221
2463	224
2464	252
2465	259
2466	221
2467	248
2468	242
2469	225
2470	230
2471	243
2472	231
2473	234
2474	244
2475	232
2476	239
2477	254
2478	241
2479	258
2480	275
2481	251
2482	248
2483	239
2484	259
2485	257
2486	249
2487	227
2488	256
2489	244
2490	299
2491	258
2492	226
2493	247
2494	243
2495	247
2496	238
2497	241
2498	246
2499	244
2500	261
2501	260
2502	235
2503	272
2504	236
2505	262
2506	234
2507	287
2508	253
2509	241
2510	267
2511	254
2512	247
2513	234
2514	233
2515	252
2516	258
2517	256
2518	229
2519	261
2520	269
2521	321
2522	255
2523	262
2524	269
2525	243
2526	259
2527	275
2528	283
2529	267
2530	277
2531	261
2532	250
2533	293
2534	256
2535	222
2536	280
2537	267
2538	246
2539	241
2540	265
2541	264
2542	247
2543	226
2544	280
2545	247
2546	267
2547	276
2548	255
2549	259
2550	257
2551	251
2552	272
2553	244
2554	255
2555	248
2556	228
2557	259
2558	240
2559	251
2560	225
2561	242
2562	214
2563	236
2564	224
2565	234
2566	220
2567	226
2568	234
2569	201
2570	225
2571	240
2572	213
2573	234
2574	231
2575	243
2576	209
2577	204
2578	196
2579	186
2580	213
2581	204
2582	240
2583	208
2584	214
2585	187
2586	194
2587	206
2588	179
2589	191
2590	188
2591	195
2592	191
2593	195
2594	212
2595	185
2596	185
2597	176
2598	200
2599	181
2600	216
2601	195
2602	191
2603	194
2604	191
2605	207
2606	185
2607	202
2608	193
2609	218
2610	198
2611	200
2612	183
2613	172
2614	192
2615	196
2616	216
2617	186
2618	192
2619	193
2620	213
2621	198
2622	197
2623	189
2624	186
2625	184
2626	207
2627	202
2628	166
2629	189
2630	192
2631	186
2632	181
2633	178
2634	178
2635	197
2636	182
2637	183
2638	168
2639	189
2640	176
2641	205
2642	195
2643	183
2644	193
2645	184
2646	173
2647	156
2648	193
2649	206
2650	183
2651	185
2652	175
2653	182
2654	183
2655	196
2656	212
2657	196
2658	177
2659	191
2660	187
2661	191
2662	160
2663	183
2664	198
2665	185
2666	187
2667	160
2668	164
2669	188
2670	179
2671	158
2672	172
2673	190
2674	186
2675	171
2676	213
2677	179
2678	177
2679	187
2680	188
2681	169
2682	181
2683	215
2684	178
2685	201
2686	182
2687	197
2688	176
2689	165
2690	177
2691	178
2692	162
2693	182
2694	165
2695	150
2696	197
2697	195
2698	204
2699	205
2700	173
2701	174
2702	187
2703	166
2704	176
2705	200
2706	185
2707	162
2708	193
2709	193
2710	180
2711	193
2712	166
2713	178
2714	195
2715	186
2716	179
2717	170
2718	158
2719	170
2720	181
2721	178
2722	205
2723	182
2724	165
2725	175
2726	182
2727	182
2728	181
2729	181
2730	167
2731	160
2732	184
2733	160
2734	175
2735	182
2736	191
2737	161
2738	178
2739	158
2740	191
2741	173
2742	173
2743	151
2744	175
2745	189
2746	167
2747	170
2748	166
2749	186
2750	180
2751	146
2752	166
2753	177
2754	160
2755	170
2756	179
2757	179
2758	189
2759	185
2760	177
2761	161
2762	187
2763	170
2764	169
2765	200
2766	167
2767	171
2768	156
2769	175
2770	166
2771	179
2772	159
2773	169
2774	179
2775	154
2776	179
2777	180
2778	168
2779	195
2780	177
2781	162
2782	184
2783	184
2784	184
2785	177
2786	169
2787	173
2788	174
2789	176
2790	176
2791	160
2792	169
2793	159
2794	189
2795	175
2796	180
2797	164
2798	192
2799	166
2800	158
2801	159
2802	177
2803	155
2804	163
2805	193
2806	174
2807	176
2808	145
2809	167
2810	155
2811	138
2812	172
2813	166
2814	167
2815	179
2816	151
2817	164
2818	167
2819	160
2820	167
2821	169
2822	190
2823	168
2824	172
2825	185
2826	151
2827	167
2828	186
2829	180
2830	158
2831	158
2832	176
2833	161
2834	174
2835	176
2836	163
2837	162
2838	148
2839	138
2840	183
2841	165
2842	171
2843	160
2844	138
2845	167
2846	157
2847	176
2848	164
2849	175
2850	168
2851	153
2852	175
2853	179
2854	161
2855	163
2856	175
2857	151
2858	158
2859	186
2860	192
2861	160
2862	164
2863	178
2864	147
2865	146
2866	158
2867	183
2868	171
2869	162
2870	167
2871	158
2872	177
2873	156
2874	148
2875	166
2876	198
2877	157
2878	156
2879	172
2880	159
2881	160
2882	156
2883	167
2884	160
2885	162
2886	173
2887	191
2888	169
2889	175
2890	177
2891	154
2892	199
2893	173
2894	162
2895	161
2896	177
2897	170
2898	177
2899	154
2900	157
2901	163
2902	184
2903	150
2904	161
2905	189
2906	182
2907	163
2908	159
2909	169
2910	158
2911	178
2912	159
2913	182
2914	158
2915	193
2916	169
2917	156
2918	169
2919	198
2920	176
2921	192
2922	184
2923	155
2924	172
2925	149
2926	154
2927	162
2928	160
2929	179
2930	180
2931	174
2932	184
2933	175
2934	170
2935	181
2936	150
2937	161
2938	166
2939	172
2940	176
2941	152
2942	172
2943	203
2944	171
2945	198
2946	171
2947	155
2948	156
2949	157
2950	191
2951	174
2952	165
2953	162
2954	159
2955	162
2956	148
2957	177
2958	167
2959	155
2960	153
2961	155
2962	138
2963	154
2964	152
2965	147
2966	168
2967	137
2968	146
2969	109
2970	145
2971	113
2972	117
2973	121
2974	117
2975	133
2976	136
2977	128
2978	117
2979	104
2980	118
2981	139
2982	113
2983	116
2984	98
2985	112
2986	127
2987	121
2988	128
2989	141
2990	122
2991	107
2992	114
2993	92
2994	118
2995	110
2996	89
2997	118
2998	121
2999	110
3000	99
3001	121
3002	106
3003	125
3004	100
3005	116
3006	108
3007	103
3008	109
3009	120
3010	105
3011	99
3012	85
3013	117
3014	105
3015	105
3016	83
3017	96
3018	111
3019	106
3020	103
3021	118
3022	97
3023	99
3024	83
3025	94
3026	103
3027	106
3028	127
3029	112
3030	114
3031	83
3032	93
3033	93
3034	71
3035	100
3036	88
3037	101
3038	76
3039	99
3040	100
3041	107
3042	88
3043	104
3044	89
3045	84
3046	92
3047	92
3048	90
3049	91
3050	87
3051	105
3052	87
3053	100
3054	82
3055	92
3056	99
3057	73
3058	75
3059	92
3060	83
3061	91
3062	76
3063	76
3064	85
3065	89
3066	78
3067	107
3068	89
3069	79
3070	99
3071	96
3072	90
3073	104
3074	92
3075	88
3076	89
3077	96
3078	82
3079	74
3080	70
3081	83
3082	78
3083	96
3084	80
3085	78
3086	97
3087	86
3088	79
3089	81
3090	70
3091	92
3092	87
3093	125
3094	94
3095	89
3096	84
3097	92
3098	96
3099	121
3100	238
3101	491
3102	1142
3103	2557
3104	4767
3105	7652
3106	10038
3107	10577
3108	9210
3109	6337
3110	3463
3111	1563
3112	528
3113	204
3114	98
3115	84
3116	83
3117	74
3118	75
3119	75
3120	89
3121	72
3122	67
3123	71
3124	52
3125	77
3126	74
3127	63
3128	72
3129	73
3130	56
3131	57
3132	63
3133	63
3134	73
3135	72
3136	60
3137	76
3138	68
3139	51
3140	55
3141	61
3142	62
3143	47
3144	50
3145	55
3146	57
3147	48
3148	49
3149	47
3150	60
3151	54
3152	47
3153	64
3154	60
3155	66
3156	60
3157	53
3158	49
3159	63
3160	47
3161	52
3162	55
3163	47
3164	42
3165	53
3166	38
3167	43
3168	45
3169	51
3170	47
3171	50
3172	47
3173	37
3174	44
3175	44
3176	43
3177	44
3178	47
3179	53
3180	47
3181	37
3182	45
3183	42
3184	42
3185	45
3186	45
3187	36
3188	42
3189	46
3190	47
3191	43
3192	40
3193	45
3194	38
3195	44
3196	47
3197	49
3198	39
3199	43
3200	50
3201	45
3202	35
3203	34
3204	44
3205	37
3206	42
3207	37
3208	27
3209	32
3210	38
3211	45
3212	36
3213	32
3214	34
3215	40
3216	39
3217	32
3218	32
3219	46
3220	35
3221	40
3222	35
3223	35
3224	45
3225	32
3226	35
3227	38
3228	33
3229	38
3230	34
3231	31
3232	30
3233	38
3234	40
3235	33
3236	36
3237	34
3238	31
3239	38
3240	31
3241	32
3242	23
3243	32
3244	29
3245	21
3246	34
3247	28
3248	34
3249	30
3250	27
3251	22
3252	33
3253	20
3254	30
3255	26
3256	28
3257	25
3258	21
3259	29
3260	42
3261	23
3262	38
3263	31
3264	26
3265	24
3266	18
3267	28
3268	24
3269	22
3270	33
3271	24
3272	28
3273	20
3274	21
3275	25
3276	24
3277	32
3278	25
3279	28
3280	28
3281	28
3282	14
3283	21
3284	23
3285	28
3286	20
3287	19
3288	18
3289	31
3290	16
3291	18
3292	26
3293	27
3294	26
3295	20
3296	24
3297	23
3298	34
3299	16
3300	20
3301	27
3302	24
3303	20
3304	19
3305	25
3306	25
3307	28
3308	20
3309	18
3310	20
3311	25
3312	22
3313	28
3314	23
3315	26
3316	22
3317	29
3318	22
3319	28
3320	18
3321	29
3322	26
3323	18
3324	25
3325	20
3326	25
3327	22
3328	18
3329	24
3330	28
3331	23
3332	24
3333	22
3334	30
3335	24
3336	20
3337	14
3338	9
3339	16
3340	22
3341	22
3342	19
3343	19
3344	16
3345	23
3346	16
3347	19
3348	18
3349	12
3350	24
3351	20
3352	23
3353	22
3354	21
3355	22
3356	19
3357	13
3358	25
3359	22
3360	24
3361	25
3362	44
3363	46
3364	119
3365	261
3366	471
3367	834
3368	1230
3369	1387
3370	1377
3371	1122
3372	710
3373	372
3374	170
3375	65
3376	30
3377	22
3378	18
3379	23
3380	18
3381	22
3382	20
3383	18
3384	21
3385	18
3386	18
3387	21
3388	14
3389	23
3390	23
3391	18
3392	17
3393	13
3394	12
3395	11
3396	12
3397	24
3398	11
3399	13
3400	15
3401	14
3402	7
3403	22
3404	24
3405	17
3406	20
3407	8
3408	25
3409	20
3410	24
3411	15
3412	21
3413	22
3414	13
3415	18
3416	21
3417	14
3418	21
3419	12
3420	13
3421	19
3422	7
3423	19
3424	19
3425	16
3426	19
3427	17
3428	14
3429	21
3430	12
3431	16
3432	12
3433	10
3434	14
3435	13
3436	18
3437	11
3438	22
3439	16
3440	20
3441	16
3442	16
3443	13
3444	16
3445	9
3446	13
3447	12
3448	23
3449	25
3450	6
3451	18
3452	20
3453	19
3454	14
3455	14
3456	15
3457	15
3458	12
3459	16
3460	15
3461	15
3462	20
3463	21
3464	9
3465	18
3466	12
3467	22
3468	17
3469	14
3470	10
3471	21
3472	19
3473	18
3474	13
3475	20
3476	14
3477	15
3478	12
3479	23
3480	14
3481	21
3482	9
3483	17
3484	18
3485	19
3486	13
3487	13
3488	14
3489	11
3490	22
3491	23
3492	13
3493	24
3494	12
3495	25
3496	16
3497	17
3498	15
3499	27
3500	25
3501	11
3502	23
3503	22
3504	21
3505	21
3506	18
3507	23
3508	22
3509	27
3510	26
3511	48
3512	102
3513	214
3514	517
3515	1347
3516	2628
3517	4812
3518	7239
3519	8784
3520	9046
3521	7612
3522	5120
3523	2862
3524	1302
3525	481
3526	141
3527	45
3528	30
3529	20
3530	12
3531	11
3532	14
3533	13
3534	9
3535	19
3536	19
3537	15
3538	11
3539	10
3540	14
3541	16
3542	6
3543	13
3544	9
3545	6
3546	10
3547	5
3548	13
3549	6
3550	8
3551	11
3552	10
3553	13
3554	10
3555	9
3556	14
3557	11
3558	5
3559	10
3560	3
3561	9
3562	8
3563	8
3564	8
3565	7
3566	13
3567	9
3568	10
3569	12
3570	7
3571	4
3572	10
3573	4
3574	6
3575	7
3576	6
3577	4
3578	7
3579	11
3580	9
3581	11
3582	10
3583	12
3584	9
3585	8
3586	5
3587	4
3588	6
3589	7
3590	16
3591	5
3592	4
3593	9
3594	10
3595	4
3596	4
3597	8
3598	4
3599	6
3600	9
3601	10
3602	8
3603	12
3604	9
3605	8
3606	10
3607	9
3608	9
3609	9
3610	6
3611	11
3612	8
3613	10
3614	4
3615	2
3616	5
3617	8
3618	9
3619	11
3620	5
3621	7
3622	10
3623	9
3624	12
3625	3
3626	11
3627	7
3628	7
3629	8
3630	9
3631	11
3632	7
3633	6
3634	11
3635	5
3636	11
3637	8
3638	7
3639	6
3640	8
3641	5
3642	12
3643	5
3644	8
3645	8
3646	10
3647	6
3648	4
3649	5
3650	7
3651	3
3652	11
3653	3
3654	6
3655	5
3656	3
3657	11
3658	3
3659	4
3660	5
3661	11
3662	6
3663	2
3664	8
3665	6
3666	8
3667	9
3668	4
3669	7
3670	6
3671	8
3672	10
3673	10
3674	6
3675	8
3676	5
3677	10
3678	7
3679	8
3680	8
3681	4
3682	12
3683	3
3684	5
3685	4
3686	6
3687	6
3688	5
3689	8
3690	4
3691	2
3692	8
3693	6
3694	7
3695	6
3696	8
3697	4
3698	7
3699	6
3700	6
3701	6
3702	8
3703	10
3704	4
3705	4
3706	5
3707	6
3708	5
3709	6
3710	6
3711	11
3712	6
3713	9
3714	15
3715	8
3716	7
3717	5
3718	6
3719	3
3720	8
3721	2
3722	4
3723	5
3724	7
3725	5
3726	6
3727	5
3728	5
3729	7
3730	4
3731	7
3732	3
3733	7
3734	11
3735	10
3736	3
3737	10
3738	6
3739	2
3740	9
3741	7
3742	3
3743	12
3744	4
3745	10
3746	5
3747	10
3748	6
3749	9
3750	11
3751	1
3752	5
3753	3
3754	6
3755	6
3756	6
3757	9
3758	6
3759	4
3760	8
3761	5
3762	6
3763	5
3764	3
3765	5
3766	5
3767	5
3768	4
3769	9
3770	9
3771	5
3772	5
3773	5
3774	1
3775	6
3776	8
3777	11
3778	9
3779	4
3780	9
3781	8
3782	7
3783	9
3784	8
3785	7
3786	4
3787	7
3788	5
3789	5
3790	8
3791	5
3792	6
3793	3
3794	1
3795	10
3796	6
3797	4
3798	7
3799	5
3800	6
3801	6
3802	3
3803	6
3804	6
3805	14
3806	8
3807	7
3808	2
3809	2
3810	3
3811	5
3812	8
3813	7
3814	2
3815	8
3816	6
3817	3
3818	5
3819	3
3820	3
3821	5
3822	5
3823	5
3824	5
3825	4
3826	5
3827	4
3828	3
3829	4
3830	8
3831	8
3832	6
3833	7
3834	9
3835	5
3836	4
3837	5
3838	5
3839	4
3840	4
3841	7
3842	6
3843	5
3844	9
3845	1
3846	7
3847	6
3848	5
3849	8
3850	12
3851	8
3852	8
3853	8
3854	7
3855	5
3856	10
3857	5
3858	2
3859	5
3860	3
3861	7
3862	8
3863	10
3864	2
3865	1
3866	7
3867	9
3868	6
3869	3
3870	3
3871	6
3872	4
3873	4
3874	5
3875	2
3876	4
3877	7
3878	2
3879	3
3880	9
3881	6
3882	8
3883	2
3884	6
3885	8
3886	10
3887	3
3888	3
3889	3
3890	11
3891	7
3892	2
3893	7
3894	2
3895	7
3896	8
3897	7
3898	4
3899	6
3900	9
3901	3
3902	4
3903	7
3904	2
3905	6
3906	6
3907	4
3908	5
3909	6
3910	8
3911	3
3912	6
3913	6
3914	8
3915	5
3916	6
3917	1
3918	4
3919	4
3920	4
3921	5
3922	5
3923	1
3924	2
3925	6
3926	4
3927	4
3928	3
3929	5
3930	5
3931	8
3932	4
3933	7
3934	3
3935	3
3936	4
3937	4
3938	5
3939	5
3940	1
3941	7
3942	6
3943	1
3944	3
3945	6
3946	8
3947	9
3948	9
3949	7
3950	7
3951	4
3952	5
3953	6
3954	5
3955	6
3956	4
3957	1
3958	2
3959	6
3960	5
3961	3
3962	0
3963	4
3964	8
3965	2
3966	0
3967	2
3968	10
3969	3
3970	6
3971	7
3972	4
3973	6
3974	5
3975	6
3976	4
3977	5
3978	10
3979	5
3980	2
3981	3
3982	1
3983	5
3984	7
3985	12
3986	2
3987	2
3988	7
3989	4
3990	6
3991	3
3992	3
3993	3
3994	4
3995	6
3996	3
3997	6
3998	6
3999	7
4000	3
4001	6
4002	4
4003	3
4004	5
4005	4
4006	5
4007	7
4008	2
4009	8
4010	6
4011	7
4012	5
4013	7
4014	4
4015	9
4016	8
4017	9
4018	4
4019	9
4020	2
4021	6
4022	3
4023	7
4024	5
4025	3
4026	3
4027	6
4028	3
4029	6
4030	2
4031	2
4032	5
4033	2
4034	2
4035	3
4036	5
4037	7
4038	4
4039	4
4040	10
4041	4
4042	2
4043	7
4044	4
4045	4
4046	4
4047	5
4048	5
4049	4
4050	2
4051	7
4052	2
4053	4
4054	7
4055	6
4056	3
4057	7
4058	4
4059	4
4060	4
4061	9
4062	6
4063	2
4064	8
4065	6
4066	2
4067	5
4068	1
4069	4
4070	4
4071	5
4072	6
4073	10
4074	5
4075	7
4076	6
4077	6
4078	6
4079	5
4080	5
4081	6
4082	7
4083	3
4084	4
4085	6
4086	7
4087	5
4088	1
4089	4
4090	4
4091	8
4092	6
4093	7
4094	3
4095	5
4096	4
4097	5
4098	5
4099	5
4100	4
4101	4
4102	8
4103	5
4104	5
4105	4
4106	8
4107	4
4108	5
4109	5
4110	1
4111	7
4112	4
4113	3
4114	6
4115	3
4116	1
4117	4
4118	4
4119	4
4120	8
4121	8
4122	3
4123	7
4124	3
4125	8
4126	5
4127	4
4128	3
4129	10
4130	7
4131	4
4132	7
4133	3
4134	10
4135	6
4136	4
4137	6
4138	10
4139	3
4140	3
4141	4
4142	5
4143	4
4144	9
4145	3
4146	2
4147	3
4148	6
4149	3
4150	5
4151	8
4152	2
4153	2
4154	5
4155	3
4156	7
4157	3
4158	8
4159	2
4160	6
4161	8
4162	3
4163	4
4164	3
4165	9
4166	4
4167	0
4168	3
4169	3
4170	2
4171	3
4172	6
4173	7
4174	6
4175	1
4176	7
4177	9
4178	5
4179	5
4180	5
4181	5
4182	6
4183	4
4184	3
4185	5
4186	1
4187	4
4188	4
4189	4
4190	5
4191	5
4192	3
4193	4
4194	5
4195	1
4196	5
4197	4
4198	7
4199	6
4200	5
4201	1
4202	5
4203	4
4204	4
4205	3
4206	2
4207	3
4208	7
4209	3
4210	4
4211	7
4212	9
4213	3
4214	6
4215	8
4216	8
4217	5
4218	4
4219	4
4220	2
4221	4
4222	3
4223	4
4224	8
4225	4
4226	7
4227	4
4228	0
4229	0
4230	8
4231	4
4232	4
4233	4
4234	9
4235	2
4236	4
4237	4
4238	5
4239	3
4240	3
4241	7
4242	2
4243	4
4244	5
4245	3
4246	2
4247	3
4248	5
4249	5
4250	4
4251	4
4252	5
4253	5
4254	5
4255	3
4256	8
4257	4
4258	5
4259	3
4260	3
4261	5
4262	8
4263	6
4264	5
4265	3
4266	2
4267	4
4268	4
4269	3
4270	7
4271	4
4272	5
4273	5
4274	2
4275	4
4276	5
4277	2
4278	5
4279	3
4280	6
4281	2
4282	4
4283	5
4284	5
4285	2
4286	4
4287	5
4288	5
4289	2
4290	6
4291	3
4292	7
4293	7
4294	5
4295	4
4296	5
4297	5
4298	8
4299	5
4300	1
4301	1
4302	4
4303	4
4304	4
4305	8
4306	4
4307	2
4308	5
4309	5
4310	5
4311	6
4312	4
4313	5
4314	3
4315	3
4316	6
4317	3
4318	6
4319	9
4320	3
4321	7
4322	4
4323	6
4324	1
4325	3
4326	3
4327	2
4328	3
4329	2
4330	0
4331	4
4332	2
4333	6
4334	4
4335	6
4336	5
4337	3
4338	2
4339	4
4340	4
4341	2
4342	3
4343	8
4344	5
4345	1
4346	2
4347	4
4348	5
4349	5
4350	4
4351	2
4352	3
4353	2
4354	7
4355	1
4356	5
4357	1
4358	5
4359	3
4360	7
4361	4
4362	2
4363	3
4364	1
4365	6
4366	1
4367	2
4368	2
4369	2
4370	4
4371	4
4372	2
4373	2
4374	2
4375	2
4376	2
4377	2
4378	5
4379	2
4380	5
4381	4
4382	6
4383	4
4384	4
4385	6
4386	3
4387	0
4388	5
4389	1
4390	5
4391	3
4392	2
4393	3
4394	7
4395	3
4396	8
4397	3
4398	4
4399	7
4400	3
4401	5
4402	2
4403	2
4404	2
4405	1
4406	6
4407	4
4408	6
4409	2
4410	2
4411	6
4412	8
4413	2
4414	1
4415	2
4416	2
4417	3
4418	0
4419	2
4420	5
4421	3
4422	3
4423	2
4424	4
4425	5
4426	6
4427	2
4428	2
4429	2
4430	2
4431	10
4432	4
4433	5
4434	5
4435	8
4436	4
4437	7
4438	4
4439	2
4440	4
4441	1
4442	2
4443	5
4444	0
4445	3
4446	3
4447	1
4448	2
4449	3
4450	2
4451	4
4452	3
4453	0
4454	6
4455	2
4456	4
4457	4
4458	3
4459	5
4460	2
4461	4
4462	2
4463	7
4464	6
4465	3
4466	7
4467	1
4468	4
4469	9
4470	3
4471	1
4472	4
4473	5
4474	5
4475	3
4476	1
4477	3
4478	5
4479	2
4480	2
4481	6
4482	1
4483	3
4484	2
4485	7
4486	4
4487	2
4488	2
4489	8
4490	5
4491	5
4492	2
4493	0
4494	4
4495	3
4496	7
4497	4
4498	6
4499	5
4500	1
4501	2
4502	3
4503	3
4504	0
4505	2
4506	3
4507	3
4508	2
4509	4
4510	2
4511	2
4512	5
4513	1
4514	5
4515	4
4516	5
4517	1
4518	4
4519	2
4520	4
4521	5
4522	3
4523	5
4524	3
4525	12
4526	4
4527	5
4528	2
4529	0
4530	2
4531	2
4532	6
4533	6
4534	2
4535	4
4536	2
4537	2
4538	2
4539	2
4540	0
4541	4
4542	0
4543	3
4544	4
4545	1
4546	4
4547	7
4548	8
4549	2
4550	4
4551	3
4552	2
4553	5
4554	3
4555	5
4556	3
4557	1
4558	1
4559	3
4560	1
4561	1
4562	3
4563	2
4564	1
4565	0
4566	4
4567	4
4568	0
4569	4
4570	1
4571	2
4572	3
4573	2
4574	2
4575	3
4576	2
4577	1
4578	5
4579	4
4580	2
4581	2
4582	3
4583	5
4584	4
4585	3
4586	4
4587	7
4588	3
4589	4
4590	2
4591	3
4592	3
4593	4
4594	6
4595	6
4596	4
4597	2
4598	4
4599	3
4600	1
4601	5
4602	5
4603	7
4604	3
4605	3
4606	0
4607	4
4608	8
4609	1
4610	1
4611	2
4612	0
4613	2
4614	3
4615	3
4616	2
4617	1
4618	2
4619	1
4620	4
4621	4
4622	2
4623	4
4624	5
4625	2
4626	4
4627	1
4628	4
4629	7
4630	7
4631	1
4632	3
4633	6
4634	4
4635	4
4636	0
4637	4
4638	4
4639	5
4640	2
4641	6
4642	2
4643	4
4644	4
4645	3
4646	3
4647	4
4648	4
4649	3
4650	1
4651	2
4652	5
4653	3
4654	0
4655	4
4656	0
4657	0
4658	4
4659	4
4660	4
4661	3
4662	4
4663	4
4664	4
4665	4
4666	2
4667	1
4668	2
4669	3
4670	3
4671	4
4672	2
4673	7
4674	1
4675	3
4676	3
4677	6
4678	6
4679	1
4680	3
4681	8
4682	8
4683	3
4684	6
4685	6
4686	6
4687	4
4688	12
4689	8
4690	11
4691	17
4692	22
4693	17
4694	27
4695	25
4696	16
4697	14
4698	14
4699	9
4700	6
4701	3
4702	4
4703	2
4704	2
4705	4
4706	5
4707	4
4708	3
4709	3
4710	1
4711	6
4712	0
4713	5
4714	3
4715	4
4716	2
4717	5
4718	2
4719	0
4720	6
4721	1
4722	3
4723	0
4724	3
4725	6
4726	7
4727	4
4728	4
4729	6
4730	4
4731	2
4732	3
4733	8
4734	6
4735	4
4736	5
4737	8
4738	6
4739	3
4740	3
4741	1
4742	2
4743	2
4744	5
4745	3
4746	0
4747	1
4748	3
4749	6
4750	2
4751	7
4752	4
4753	4
4754	3
4755	2
4756	5
4757	2
4758	7
4759	3
4760	6
4761	2
4762	2
4763	7
4764	4
4765	4
4766	5
4767	2
4768	3
4769	3
4770	4
4771	2
4772	3
4773	2
4774	3
4775	0
4776	4
4777	5
4778	4
4779	3
4780	2
4781	6
4782	6
4783	4
4784	3
4785	0
4786	1
4787	4
4788	3
4789	4
4790	2
4791	2
4792	5
4793	5
4794	2
4795	1
4796	4
4797	2
4798	3
4799	7
4800	4
4801	2
4802	8
4803	1
4804	5
4805	4
4806	8
4807	4
4808	2
4809	5
4810	1
4811	3
4812	4
4813	7
4814	3
4815	7
4816	8
4817	3
4818	8
4819	7
4820	3
4821	6
4822	8
4823	2
4824	3
4825	2
4826	1
4827	5
4828	2
4829	2
4830	3
4831	2
4832	4
4833	4
4834	1
4835	2
4836	7
4837	4
4838	4
4839	1
4840	7
4841	5
4842	1
4843	1
4844	2
4845	2
4846	4
4847	3
4848	4
4849	1
4850	4
4851	3
4852	3
4853	4
4854	0
4855	1
4856	4
4857	4
4858	1
4859	3
4860	3
4861	3
4862	1
4863	1
4864	4
4865	2
4866	2
4867	5
4868	2
4869	4
4870	3
4871	2
4872	4
4873	2
4874	1
4875	4
4876	4
4877	2
4878	3
4879	2
4880	4
4881	2
4882	4
4883	5
4884	1
4885	4
4886	8
4887	1
4888	8
4889	4
4890	2
4891	2
4892	1
4893	2
4894	5
4895	2
4896	3
4897	5
4898	3
4899	2
4900	4
4901	3
4902	1
4903	1
4904	3
4905	4
4906	2
4907	4
4908	2
4909	5
4910	4
4911	5
4912	3
4913	2
4914	3
4915	3
4916	1
4917	1
4918	2
4919	4
4920	2
4921	2
4922	3
4923	6
4924	2
4925	5
4926	2
4927	6
4928	2
4929	4
4930	4
4931	2
4932	2
4933	2
4934	1
4935	4
4936	0
4937	1
4938	6
4939	2
4940	3
4941	4
4942	2
4943	2
4944	2
4945	1
4946	1
4947	2
4948	4
4949	2
4950	5
4951	2
4952	5
4953	2
4954	5
4955	4
4956	4
4957	2
4958	5
4959	2
4960	4
4961	2
4962	4
4963	1
4964	4
4965	3
4966	4
4967	0
4968	3
4969	6
4970	2
4971	3
4972	7
4973	4
4974	4
4975	3
4976	4
4977	3
4978	1
4979	4
4980	3
4981	4
4982	6
4983	4
4984	7
4985	3
4986	2
4987	7
4988	5
4989	2
4990	4
4991	2
4992	1
4993	4
4994	1
4995	3
4996	2
4997	5
4998	9
4999	4
5000	3
5001	5
5002	3
5003	2
5004	5
5005	1
5006	4
5007	5
5008	3
5009	3
5010	4
5011	3
5012	3
5013	3
5014	3
5015	1
5016	3
5017	2
5018	4
5019	5
5020	1
5021	4
5022	2
5023	6
5024	1
5025	6
5026	3
5027	3
5028	4
5029	1
5030	3
5031	5
5032	4
5033	0
5034	5
5035	4
5036	3
5037	2
5038	1
5039	4
5040	3
5041	2
5042	3
5043	7
5044	3
5045	5
5046	6
5047	0
5048	1
5049	3
5050	1
5051	2
5052	0
5053	3
5054	4
5055	4
5056	3
5057	4
5058	3
5059	3
5060	2
5061	2
5062	1
5063	3
5064	8
5065	6
5066	1
5067	2
5068	2
5069	1
5070	7
5071	4
5072	4
5073	1
5074	3
5075	7
5076	5
5077	4
5078	4
5079	3
5080	4
5081	3
5082	2
5083	4
5084	0
5085	4
5086	1
5087	2
5088	2
5089	0
5090	5
5091	3
5092	5
5093	1
5094	3
5095	6
5096	1
5097	1
5098	7
5099	3
5100	2
5101	6
5102	2
5103	3
5104	3
5105	2
5106	3
5107	3
5108	8
5109	3
5110	2
5111	3
5112	2
5113	4
5114	3
5115	6
5116	4
5117	2
5118	4
5119	3
5120	2
5121	3
5122	3
5123	5
5124	8
5125	1
5126	1
5127	3
5128	6
5129	2
5130	2
5131	3
5132	4
5133	0
5134	2
5135	2
5136	4
5137	4
5138	3
5139	3
5140	2
5141	2
5142	5
5143	3
5144	5
5145	1
5146	4
5147	1
5148	1
5149	2
5150	5
5151	2
5152	2
5153	3
5154	3
5155	3
5156	0
5157	2
5158	0
5159	4
5160	0
5161	5
5162	5
5163	2
5164	2
5165	4
5166	1
5167	3
5168	5
5169	2
5170	4
5171	4
5172	3
5173	5
5174	3
5175	2
5176	3
5177	3
5178	2
5179	5
5180	4
5181	1
5182	1
5183	2
5184	3
5185	0
5186	4
5187	1
5188	1
5189	6
5190	3
5191	0
5192	3
5193	8
5194	2
5195	2
5196	2
5197	0
5198	4
5199	3
5200	3
5201	5
5202	3
5203	3
5204	0
5205	3
5206	4
5207	5
5208	4
5209	2
5210	3
5211	1
5212	5
5213	4
5214	4
5215	2
5216	3
5217	5
5218	7
5219	1
5220	2
5221	4
5222	4
5223	0
5224	4
5225	2
5226	0
5227	4
5228	5
5229	0
5230	4
5231	5
5232	3
5233	4
5234	5
5235	2
5236	4
5237	3
5238	3
5239	3
5240	2
5241	3
5242	1
5243	2
5244	1
5245	5
5246	2
5247	4
5248	3
5249	4
5250	3
5251	4
5252	5
5253	1
5254	4
5255	3
5256	2
5257	4
5258	5
5259	4
5260	2
5261	2
5262	1
5263	5
5264	3
5265	7
5266	6
5267	2
5268	2
5269	5
5270	2
5271	0
5272	3
5273	2
5274	4
5275	2
5276	4
5277	4
5278	5
5279	0
5280	3
5281	3
5282	2
5283	1
5284	2
5285	5
5286	4
5287	2
5288	2
5289	6
5290	4
5291	5
5292	3
5293	4
5294	3
5295	2
5296	2
5297	0
5298	2
5299	2
5300	8
5301	2
5302	3
5303	2
5304	3
5305	2
5306	9
5307	1
5308	0
5309	3
5310	2
5311	3
5312	1
5313	3
5314	3
5315	2
5316	1
5317	3
5318	2
5319	2
5320	3
5321	3
5322	3
5323	8
5324	2
5325	3
5326	2
5327	2
5328	4
5329	0
5330	3
5331	3
5332	3
5333	0
5334	2
5335	6
5336	1
5337	6
5338	2
5339	1
5340	2
5341	0
5342	4
5343	1
5344	4
5345	4
5346	1
5347	2
5348	6
5349	3
5350	2
5351	1
5352	3
5353	2
5354	3
5355	3
5356	1
5357	3
5358	4
5359	4
5360	4
5361	4
5362	2
5363	2
5364	6
5365	2
5366	3
5367	0
5368	2
5369	5
5370	2
5371	1
5372	6
5373	4
5374	3
5375	3
5376	4
5377	2
5378	4
5379	5
5380	4
5381	7
5382	4
5383	1
5384	3
5385	4
5386	1
5387	5
5388	3
5389	2
5390	3
5391	1
5392	2
5393	4
5394	3
5395	0
5396	1
5397	4
5398	2
5399	5
5400	3
5401	4
5402	7
5403	5
5404	4
5405	5
5406	3
5407	2
5408	2
5409	4
5410	4
5411	3
5412	3
5413	4
5414	2
5415	5
5416	3
5417	0
5418	0
5419	1
5420	2
5421	2
5422	3
5423	0
5424	4
5425	3
5426	1
5427	2
5428	4
5429	3
5430	0
5431	2
5432	4
5433	5
5434	7
5435	3
5436	2
5437	0
5438	4
5439	3
5440	0
5441	6
5442	2
5443	2
5444	3
5445	3
5446	5
5447	1
5448	1
5449	1
5450	1
5451	7
5452	2
5453	3
5454	2
5455	3
5456	4
5457	6
5458	2
5459	2
5460	0
5461	11
5462	1
5463	0
5464	4
5465	3
5466	1
5467	1
5468	1
5469	3
5470	2
5471	3
5472	4
5473	4
5474	3
5475	5
5476	8
5477	4
5478	1
5479	1
5480	4
5481	3
5482	3
5483	0
5484	3
5485	2
5486	1
5487	3
5488	0
5489	1
5490	2
5491	2
5492	2
5493	5
5494	2
5495	4
5496	4
5497	3
5498	5
5499	4
5500	5
5501	4
5502	4
5503	0
5504	3
5505	3
5506	2
5507	1
5508	5
5509	6
5510	1
5511	4
5512	3
5513	1
5514	3
5515	4
5516	2
5517	6
5518	1
5519	2
5520	3
5521	3
5522	2
5523	1
5524	1
5525	2
5526	4
5527	3
5528	1
5529	2
5530	2
5531	2
5532	5
5533	5
5534	2
5535	5
5536	4
5537	3
5538	5
5539	4
5540	9
5541	2
5542	8
5543	3
5544	7
5545	2
5546	5
5547	1
5548	3
5549	1
5550	1
5551	0
5552	1
5553	1
5554	3
5555	4
5556	1
5557	3
5558	2
5559	1
5560	3
5561	1
5562	4
5563	3
5564	1
5565	5
5566	6
5567	4
5568	6
5569	3
5570	1
5571	3
5572	7
5573	1
5574	3
5575	4
5576	5
5577	1
5578	1
5579	2
5580	2
5581	5
5582	2
5583	5
5584	4
5585	1
5586	6
5587	4
5588	3
5589	1
5590	2
5591	3
5592	4
5593	3
5594	2
5595	2
5596	5
5597	5
5598	2
5599	2
5600	2
5601	2
5602	3
5603	3
5604	4
5605	3
5606	4
5607	3
5608	1
5609	2
5610	1
5611	2
5612	1
5613	6
5614	4
5615	3
5616	1
5617	2
5618	4
5619	2
5620	1
5621	2
5622	1
5623	3
5624	3
5625	3
5626	1
5627	1
5628	3
5629	2
5630	1
5631	1
5632	1
5633	1
5634	3
5635	2
5636	2
5637	0
5638	2
5639	7
5640	3
5641	1
5642	3
5643	4
5644	2
5645	2
5646	2
5647	2
5648	5
5649	3
5650	1
5651	2
5652	1
5653	2
5654	3
5655	2
5656	2
5657	3
5658	2
5659	5
5660	2
5661	2
5662	3
5663	2
5664	3
5665	4
5666	1
5667	2
5668	2
5669	0
5670	1
5671	5
5672	1
5673	5
5674	5
5675	3
5676	2
5677	1
5678	1
5679	4
5680	0
5681	3
5682	3
5683	3
5684	1
5685	2
5686	3
5687	0
5688	2
5689	2
5690	0
5691	2
5692	2
5693	6
5694	4
5695	1
5696	3
5697	5
5698	0
5699	5
5700	0
5701	3
5702	3
5703	2
5704	2
5705	1
5706	2
5707	1
5708	2
5709	1
5710	3
5711	2
5712	3
5713	4
5714	1
5715	4
5716	3
5717	3
5718	4
5719	0
5720	5
5721	1
5722	4
5723	3
5724	2
5725	3
5726	1
5727	3
5728	1
5729	2
5730	2
5731	2
5732	1
5733	3
5734	4
5735	1
5736	2
5737	1
5738	3
5739	1
5740	1
5741	1
5742	2
5743	3
5744	7
5745	1
5746	3
5747	4
5748	2
5749	2
5750	5
5751	1
5752	4
5753	3
5754	3
5755	4
5756	4
5757	2
5758	3
5759	2
5760	2
5761	2
5762	1
5763	0
5764	3
5765	3
5766	1
5767	1
5768	2
5769	3
5770	3
5771	3
5772	5
5773	3
5774	0
5775	2
5776	5
5777	2
5778	4
5779	2
5780	4
5781	4
5782	1
5783	2
5784	3
5785	1
5786	2
5787	2
5788	3
5789	3
5790	4
5791	4
5792	1
5793	3
5794	1
5795	0
5796	2
5797	3
5798	5
5799	2
5800	1
5801	3
5802	1
5803	5
5804	4
5805	4
5806	2
5807	4
5808	4
5809	2
5810	2
5811	2
5812	3
5813	4
5814	1
5815	2
5816	3
5817	1
5818	5
5819	4
5820	1
5821	0
5822	3
5823	4
5824	4
5825	5
5826	5
5827	2
5828	2
5829	1
5830	4
5831	1
5832	3
5833	3
5834	2
5835	4
5836	2
5837	1
5838	3
5839	3
5840	2
5841	2
5842	2
5843	4
5844	4
5845	5
5846	2
5847	2
5848	4
5849	4
5850	2
5851	4
5852	4
5853	2
5854	3
5855	5
5856	0
5857	5
5858	1
5859	2
5860	2
5861	6
5862	0
5863	6
5864	1
5865	3
5866	0
5867	4
5868	4
5869	3
5870	3
5871	4
5872	1
5873	3
5874	2
5875	0
5876	2
5877	4
5878	1
5879	2
5880	2
5881	2
5882	5
5883	0
5884	3
5885	4
5886	4
5887	7
5888	2
5889	3
5890	3
5891	1
5892	2
5893	2
5894	3
5895	6
5896	2
5897	1
5898	4
5899	2
5900	5
5901	3
5902	6
5903	6
5904	2
5905	2
5906	1
5907	3
5908	3
5909	3
5910	4
5911	3
5912	2
5913	2
5914	5
5915	4
5916	6
5917	2
5918	2
5919	3
5920	4
5921	3
5922	9
5923	1
5924	4
5925	3
5926	3
5927	3
5928	1
5929	3
5930	2
5931	5
5932	7
5933	2
5934	3
5935	2
5936	2
5937	2
5938	2
5939	1
5940	3
5941	6
5942	5
5943	2
5944	1
5945	4
5946	4
5947	1
5948	1
5949	3
5950	3
5951	3
5952	3
5953	3
5954	1
5955	1
5956	2
5957	6
5958	4
5959	6
5960	3
5961	2
5962	9
5963	2
5964	2
5965	3
5966	3
5967	3
5968	4
5969	2
5970	3
5971	2
5972	6
5973	6
5974	2
5975	5
5976	2
5977	6
5978	6
5979	5
5980	3
5981	4
5982	1
5983	7
5984	2
5985	4
5986	5
5987	6
5988	5
5989	3
5990	5
5991	4
5992	1
5993	1
5994	7
5995	3
5996	6
5997	1
5998	2
5999	5
6000	1
6001	1
6002	4
6003	2
6004	2
6005	3
6006	2
6007	5
6008	5
6009	3
6010	1
6011	6
6012	1
6013	4
6014	1
6015	4
6016	0
6017	4
6018	2
6019	1
6020	1
6021	4
6022	5
6023	2
6024	3
6025	3
6026	2
6027	6
6028	1
6029	0
6030	2
6031	3
6032	3
6033	1
6034	3
6035	1
6036	4
6037	4
6038	1
6039	4
6040	0
6041	3
6042	2
6043	3
6044	2
6045	1
6046	1
6047	1
6048	1
6049	2
6050	1
6051	1
6052	1
6053	3
6054	1
6055	3
6056	5
6057	3
6058	0
6059	2
6060	0
6061	1
6062	1
6063	1
6064	6
6065	3
6066	1
6067	2
6068	5
6069	4
6070	4
6071	2
6072	3
6073	1
6074	2
6075	0
6076	1
6077	2
6078	1
6079	3
6080	1
6081	2
6082	2
6083	3
6084	1
6085	0
6086	1
6087	2
6088	4
6089	0
6090	2
6091	4
6092	3
6093	2
6094	1
6095	3
6096	0
6097	1
6098	2
6099	1
6100	1
6101	3
6102	0
6103	4
6104	1
6105	1
6106	2
6107	1
6108	1
6109	3
6110	3
6111	2
6112	2
6113	3
6114	1
6115	1
6116	0
6117	3
6118	2
6119	1
6120	0
6121	0
6122	1
6123	4
6124	3
6125	2
6126	3
6127	1
6128	0
6129	1
6130	3
6131	0
6132	4
6133	0
6134	1
6135	1
6136	3
6137	0
6138	1
6139	2
6140	2
6141	1
6142	2
6143	5
6144	1
6145	3
6146	1
6147	3
6148	2
6149	2
6150	3
6151	2
6152	1
6153	1
6154	0
6155	3
6156	4
6157	1
6158	1
6159	0
6160	1
6161	1
6162	1
6163	0
6164	2
6165	2
6166	0
6167	3
6168	4
6169	1
6170	0
6171	1
6172	0
6173	2
6174	2
6175	0
6176	3
6177	1
6178	3
6179	2
6180	0
6181	0
6182	3
6183	2
6184	0
6185	0
6186	1
6187	1
6188	0
6189	1
6190	1
6191	2
6192	2
6193	3
6194	0
6195	1
6196	0
6197	0
6198	2
6199	1
6200	0
6201	0
6202	2
6203	1
6204	0
6205	0
6206	0
6207	2
6208	0
6209	1
6210	3
6211	0
6212	0
6213	3
6214	2
6215	3
6216	1
6217	0
6218	0
6219	0
6220	0
6221	0
6222	0
6223	0
6224	2
6225	0
6226	1
6227	3
6228	0
6229	1
6230	0
6231	0
6232	2
6233	2
6234	2
6235	1
6236	2
6237	0
6238	1
6239	1
6240	1
6241	1
6242	1
6243	3
6244	2
6245	1
6246	0
6247	0
6248	0
6249	1
6250	1
6251	0
6252	0
6253	4
6254	1
6255	1
6256	1
6257	1
6258	1
6259	1
6260	0
6261	0
6262	0
6263	0
6264	1
6265	0
6266	0
6267	0
6268	0
6269	1
6270	2
6271	0
6272	0
6273	4
6274	0
6275	0
6276	1
6277	0
6278	0
6279	0
6280	1
6281	1
6282	0
6283	1
6284	0
6285	0
6286	1
6287	2
6288	0
6289	1
6290	0
6291	1
6292	2
6293	1
6294	0
6295	0
6296	0
6297	0
6298	0
6299	2
6300	0
6301	0
6302	0
6303	0
6304	1
6305	1
6306	0
6307	0
6308	0
6309	0
6310	1
6311	1
6312	0
6313	0
6314	0
6315	0
6316	0
6317	0
6318	1
6319	0
6320	1
6321	1
6322	0
6323	2
6324	1
6325	0
6326	0
6327	0
6328	0
6329	0
6330	0
6331	0
6332	0
6333	1
6334	0
6335	0
6336	0
6337	0
6338	1
6339	0
6340	0
6341	1
6342	1
6343	0
6344	0
6345	1
6346	0
6347	0
6348	3
6349	2
6350	0
6351	1
6352	0
6353	0
6354	0
6355	0
6356	0
6357	0
6358	1
6359	0
6360	1
6361	1
6362	0
6363	0
6364	1
6365	0
6366	1
6367	1
6368	0
6369	0
6370	1
6371	0
6372	1
6373	0
6374	0
6375	0
6376	0
6377	0
6378	2
6379	0
6380	0
6381	0
6382	0
6383	1
6384	2
6385	0
6386	2
6387	1
6388	0
6389	0
6390	1
6391	0
6392	2
6393	0
6394	0
6395	0
6396	0
6397	0
6398	0
6399	0
6400	1
6401	2
6402	1
6403	0
6404	0
6405	1
6406	0
6407	1
6408	0
6409	0
6410	1
6411	0
6412	0
6413	0
6414	1
6415	0
6416	0
6417	0
6418	0
6419	1
6420	0
6421	0
6422	0
6423	0
6424	0
6425	0
6426	0
6427	0
6428	0
6429	0
6430	0
6431	0
6432	2
6433	1
6434	0
6435	1
6436	0
6437	1
6438	0
6439	0
6440	1
6441	0
6442	0
6443	0
6444	1
6445	0
6446	0
6447	0
6448	1
6449	0
6450	0
6451	0
6452	1
6453	1
6454	0
6455	1
6456	0
6457	0
6458	1
6459	0
6460	1
6461	0
6462	1
6463	0
6464	1
6465	2
6466	1
6467	0
6468	0
6469	1
6470	2
6471	1
6472	0
6473	0
6474	0
6475	0
6476	0
6477	0
6478	1
6479	0
6480	1
6481	0
6482	1
6483	1
6484	0
6485	0
6486	0
6487	0
6488	0
6489	0
6490	1
6491	0
6492	0
6493	0
6494	0
6495	1
6496	0
6497	2
6498	0
6499	0
6500	0
6501	0
6502	0
6503	0
6504	0
6505	0
6506	0
6507	0
6508	0
6509	0
6510	2
6511	0
6512	0
6513	1
6514	1
6515	0
6516	0
6517	0
6518	3
6519	1
6520	0
6521	1
6522	1
6523	2
6524	0
6525	1
6526	0
6527	1
6528	0
6529	0
6530	0
6531	1
6532	0
6533	1
6534	0
6535	0
6536	0
6537	0
6538	0
6539	2
6540	0
6541	0
6542	0
6543	0
6544	0
6545	1
6546	1
6547	1
6548	0
6549	0
6550	1
6551	1
6552	2
6553	2
6554	8
6555	18
6556	26
6557	45
6558	65
6559	75
6560	68
6561	65
6562	63
6563	58
6564	34
6565	16
6566	7
6567	4
6568	1
6569	0
6570	0
6571	0
6572	0
6573	0
6574	0
6575	0
6576	0
6577	0
6578	0
6579	0
6580	0
6581	0
6582	0
6583	0
6584	0
6585	0
6586	0
6587	1
6588	1
6589	0
6590	0
6591	0
6592	0
6593	0
6594	0
6595	0
6596	0
6597	0
6598	0
6599	0
6600	0
6601	0
6602	0
6603	1
6604	0
6605	0
6606	0
6607	0
6608	0
6609	0
6610	0
6611	0
6612	0
6613	0
6614	0
6615	0
6616	0
6617	0
6618	0
6619	0
6620	0
6621	0
6622	0
6623	0
6624	0
6625	0
6626	0
6627	0
6628	0
6629	1
6630	0
6631	0
6632	0
6633	0
6634	0
6635	0
6636	0
6637	0
6638	0
6639	0
6640	0
6641	0
6642	0
6643	0
6644	0
6645	0
6646	0
6647	1
6648	0
6649	1
6650	0
6651	0
6652	0
6653	0
6654	0
6655	0
6656	0
6657	0
6658	0
6659	0
6660	0
6661	0
6662	0
6663	1
6664	0
6665	0
6666	0
6667	0
6668	0
6669	0
6670	0
6671	0
6672	0
6673	0
6674	1
6675	0
6676	0
6677	0
6678	0
6679	0
6680	0
6681	0
6682	0
6683	0
6684	1
6685	0
6686	0
6687	0
6688	0
6689	0
6690	0
6691	1
6692	0
6693	0
6694	0
6695	0
6696	0
6697	0
6698	0
6699	0
6700	0
6701	0
6702	0
6703	0
6704	1
6705	0
6706	0
6707	0
6708	0
6709	0
6710	0
6711	0
6712	1
6713	0
6714	0
6715	0
6716	0
6717	0
6718	0
6719	0
6720	0
6721	0
6722	0
6723	0
6724	0
6725	0
6726	0
6727	0
6728	0
6729	0
6730	0
6731	0
6732	0
6733	0
6734	0
6735	0
6736	0
6737	0
6738	0
6739	0
6740	1
6741	0
6742	0
6743	0
6744	0
6745	0
6746	0
6747	0
6748	0
6749	0
6750	0
6751	0
6752	0
6753	0
6754	0
6755	0
6756	0
6757	0
6758	0
6759	0
6760	0
6761	0
6762	0
6763	0
6764	1
6765	0
6766	0
6767	0
6768	0
6769	0
6770	0
6771	0
6772	0
6773	0
6774	0
6775	0
6776	0
6777	0
6778	0
6779	0
6780	0
6781	0
6782	0
6783	0
6784	0
6785	0
6786	0
6787	0
6788	0
6789	0
6790	0
6791	0
6792	0
6793	0
6794	0
6795	0
6796	0
6797	0
6798	0
6799	0
6800	0
6801	0
6802	0
6803	0
6804	0
6805	0
6806	0
6807	0
6808	0
6809	0
6810	0
6811	0
6812	0
6813	0
6814	0
6815	0
6816	0
6817	0
6818	1
6819	0
6820	0
6821	0
6822	0
6823	1
6824	0
6825	0
6826	0
6827	0
6828	0
6829	0
6830	0
6831	0
6832	0
6833	0
6834	0
6835	0
6836	0
6837	1
6838	0
6839	1
6840	0
6841	1
6842	0
6843	0
6844	2
6845	1
6846	0
6847	0
6848	1
6849	0
6850	0
6851	0
6852	0
6853	0
6854	0
6855	0
6856	0
6857	0
6858	0
6859	0
6860	0
6861	0
6862	0
6863	0
6864	0
6865	0
6866	0
6867	0
6868	0
6869	0
6870	0
6871	0
6872	0
6873	0
6874	0
6875	0
6876	0
6877	0
6878	0
6879	0
6880	0
6881	0
6882	0
6883	0
6884	0
6885	0
6886	0
6887	0
6888	0
6889	0
6890	0
6891	0
6892	0
6893	0
6894	0
6895	0
6896	0
6897	0
6898	0
6899	1
6900	0
6901	0
6902	0
6903	0
6904	0
6905	0
6906	0
6907	0
6908	0
6909	0
6910	0
6911	0
6912	0
6913	0
6914	0
6915	0
6916	0
6917	0
6918	1
6919	0
6920	0
6921	0
6922	0
6923	0
6924	0
6925	0
6926	1
6927	0
6928	0
6929	0
6930	0
6931	0
6932	0
6933	0
6934	0
6935	0
6936	0
6937	0
6938	0
6939	0
6940	0
6941	0
6942	0
6943	0
6944	0
6945	0
6946	0
6947	0
6948	0
6949	0
6950	0
6951	0
6952	0
6953	0
6954	0
6955	0
6956	0
6957	0
6958	0
6959	0
6960	0
6961	0
6962	0
6963	0
6964	0
6965	0
6966	0
6967	0
6968	0
6969	1
6970	1
6971	1
6972	0
6973	0
6974	0
6975	0
6976	0
6977	0
6978	0
6979	0
6980	0
6981	0
6982	0
6983	0
6984	0
6985	0
6986	0
6987	0
6988	0
6989	0
6990	0
6991	0
6992	0
6993	0
6994	0
6995	0
6996	0
6997	0
6998	0
6999	0
7000	0
7001	0
7002	0
7003	0
7004	0
7005	0
7006	0
7007	0
7008	0
7009	0
7010	0
7011	0
7012	0
7013	0
7014	0
7015	0
7016	0
7017	0
7018	0
7019	0
7020	0
7021	0
7022	0
7023	0
7024	0
7025	0
7026	0
7027	0
7028	0
7029	0
7030	0
7031	0
7032	0
7033	0
7034	0
7035	0
7036	0
7037	0
7038	0
7039	0
7040	0
7041	0
7042	0
7043	0
7044	0
7045	0
7046	0
7047	0
7048	0
7049	0
7050	0
7051	0
7052	0
7053	0
7054	0
7055	0
7056	0
7057	0
7058	0
7059	0
7060	0
7061	0
7062	0
7063	0
7064	0
7065	0
7066	0
7067	0
7068	0
7069	0
7070	0
7071	0
7072	0
7073	0
7074	0
7075	0
7076	0
7077	0
7078	0
7079	0
7080	0
7081	0
7082	0
7083	0
7084	0
7085	0
7086	0
7087	0
7088	0
7089	0
7090	0
7091	0
7092	0
7093	0
7094	0
7095	0
7096	0
7097	0
7098	0
7099	0
7100	0
7101	0
7102	0
7103	0
7104	0
7105	0
7106	0
7107	0
7108	0
7109	0
7110	0
7111	0
7112	0
7113	0
7114	0
7115	0
7116	0
7117	0
7118	0
7119	0
7120	0
7121	0
7122	0
7123	0
7124	0
7125	0
7126	0
7127	0
7128	0
7129	0
7130	0
7131	0
7132	0
7133	0
7134	0
7135	0
7136	0
7137	0
7138	0
7139	0
7140	0
7141	0
7142	0
7143	0
7144	0
7145	1
7146	0
7147	0
7148	0
7149	0
7150	0
7151	0
7152	0
7153	0
7154	0
7155	0
7156	0
7157	0
7158	0
7159	0
7160	0
7161	0
7162	0
7163	0
7164	0
7165	0
7166	0
7167	0
7168	0
7169	0
7170	0
7171	0
7172	0
7173	0
7174	0
7175	0
7176	0
7177	0
7178	0
7179	0
7180	0
7181	0
7182	0
7183	0
7184	0
7185	0
7186	0
7187	0
7188	0
7189	0
7190	0
7191	0
7192	0
7193	0
7194	0
7195	0
7196	0
7197	0
7198	0
7199	0
7200	0
7201	0
7202	0
7203	0
7204	0
7205	0
7206	0
7207	0
7208	0
7209	0
7210	0
7211	0
7212	0
7213	0
7214	0
7215	0
7216	0
7217	0
7218	0
7219	0
7220	0
7221	0
7222	0
7223	0
7224	0
7225	0
7226	0
7227	0
7228	0
7229	0
7230	0
7231	0
7232	0
7233	0
7234	0
7235	0
7236	0
7237	0
7238	0
7239	0
7240	0
7241	0
7242	0
7243	0
7244	0
7245	0
7246	0
7247	0
7248	0
7249	0
7250	0
7251	0
7252	0
7253	0
7254	0
7255	0
7256	0
7257	0
7258	0
7259	0
7260	0
7261	0
7262	0
7263	0
7264	0
7265	0
7266	0
7267	0
7268	0
7269	0
7270	0
7271	0
7272	0
7273	0
7274	0
7275	0
7276	0
7277	0
7278	0
7279	0
7280	0
7281	0
7282	0
7283	0
7284	0
7285	0
7286	0
7287	0
7288	0
7289	0
7290	0
7291	0
7292	0
7293	0
7294	0
7295	0
7296	0
7297	0
7298	0
7299	0
7300	0
7301	0
7302	0
7303	0
7304	0
7305	1
7306	0
7307	0
7308	0
7309	0
7310	0
7311	0
7312	0
7313	0
7314	0
7315	0
7316	0
7317	0
7318	0
7319	0
7320	0
7321	0
7322	0
7323	0
7324	0
7325	0
7326	0
7327	0
7328	0
7329	0
7330	0
7331	0
7332	0
7333	0
7334	0
7335	0
7336	0
7337	0
7338	0
7339	0
7340	0
7341	0
7342	0
7343	0
7344	0
7345	0
7346	0
7347	0
7348	0
7349	0
7350	0
7351	0
7352	0
7353	0
7354	0
7355	0
7356	0
7357	0
7358	0
7359	0
7360	0
7361	0
7362	0
7363	0
7364	0
7365	0
7366	0
7367	0
7368	0
7369	0
7370	0
7371	0
7372	0
7373	0
7374	0
7375	0
7376	0
7377	0
7378	0
7379	0
7380	0
7381	0
7382	0
7383	1
7384	0
7385	0
7386	0
7387	0
7388	1
7389	0
7390	0
7391	0
7392	0
7393	0
7394	0
7395	0
7396	0
7397	0
7398	0
7399	0
7400	0
7401	0
7402	0
7403	0
7404	0
7405	1
7406	0
7407	0
7408	0
7409	0
7410	0
7411	0
7412	0
7413	0
7414	0
7415	0
7416	0
7417	0
7418	0
7419	0
7420	0
7421	0
7422	1
7423	0
7424	0
7425	0
7426	0
7427	0
7428	0
7429	0
7430	0
7431	0
7432	0
7433	1
7434	0
7435	0
7436	0
7437	0
7438	0
7439	0
7440	0
7441	0
7442	0
7443	0
7444	0
7445	0
7446	0
7447	0
7448	0
7449	0
7450	0
7451	0
7452	0
7453	0
7454	0
7455	0
7456	0
7457	0
7458	0
7459	0
7460	0
7461	0
7462	0
7463	0
7464	0
7465	0
7466	0
7467	0
7468	0
7469	1
7470	0
7471	0
7472	0
7473	0
7474	0
7475	0
7476	0
7477	0
7478	0
7479	0
7480	0
7481	0
7482	0
7483	0
7484	0
7485	0
7486	0
7487	0
7488	0
7489	0
7490	0
7491	0
7492	0
7493	0
7494	0
7495	0
7496	0
7497	0
7498	0
7499	0
7500	0
7501	0
7502	0
7503	0
7504	0
7505	0
7506	0
7507	0
7508	0
7509	0
7510	0
7511	0
7512	0
7513	0
7514	0
7515	0
7516	0
7517	0
7518	0
7519	0
7520	0
7521	0
7522	0
7523	0
7524	0
7525	0
7526	0
7527	0
7528	0
7529	0
7530	0
7531	0
7532	0
7533	0
7534	0
7535	0
7536	0
7537	0
7538	0
7539	0
7540	0
7541	0
7542	0
7543	0
7544	0
7545	0
7546	0
7547	0
7548	0
7549	0
7550	0
7551	0
7552	0
7553	0
7554	0
7555	0
7556	0
7557	0
7558	0
7559	0
7560	0
7561	0
7562	0
7563	0
7564	0
7565	0
7566	0
7567	0
7568	0
7569	0
7570	0
7571	0
7572	0
7573	0
7574	0
7575	0
7576	0
7577	0
7578	0
7579	0
7580	0
7581	0
7582	0
7583	0
7584	0
7585	0
7586	0
7587	0
7588	0
7589	0
7590	0
7591	1
7592	0
7593	0
7594	0
7595	0
7596	0
7597	0
7598	0
7599	0
7600	0
7601	0
7602	0
7603	0
7604	0
7605	0
7606	0
7607	0
7608	0
7609	0
7610	0
7611	0
7612	0
7613	0
7614	0
7615	0
7616	0
7617	0
7618	0
7619	0
7620	0
7621	0
7622	0
7623	0
7624	0
7625	0
7626	1
7627	0
7628	0
7629	0
7630	0
7631	0
7632	0
7633	0
7634	0
7635	0
7636	0
7637	0
7638	0
7639	0
7640	0
7641	0
7642	0
7643	0
7644	0
7645	0
7646	1
7647	0
7648	0
7649	0
7650	0
7651	0
7652	1
7653	1
7654	0
7655	0
7656	0
7657	0
7658	0
7659	1
7660	0
7661	0
7662	0
7663	0
7664	0
7665	0
7666	0
7667	0
7668	0
7669	0
7670	0
7671	0
7672	0
7673	0
7674	0
7675	0
7676	0
7677	0
7678	0
7679	0
7680	0
7681	0
7682	0
7683	0
7684	0
7685	0
7686	0
7687	0
7688	0
7689	0
7690	0
7691	0
7692	0
7693	0
7694	0
7695	0
7696	0
7697	0
7698	0
7699	0
7700	0
7701	0
7702	0
7703	0
7704	0
7705	0
7706	0
7707	0
7708	0
7709	0
7710	0
7711	0
7712	0
7713	1
7714	0
7715	0
7716	0
7717	0
7718	0
7719	0
7720	0
7721	0
7722	0
7723	0
7724	0
7725	0
7726	0
7727	0
7728	0
7729	0
7730	0
7731	0
7732	0
7733	0
7734	0
7735	0
7736	0
7737	0
7738	0
7739	0
7740	0
7741	0
7742	0
7743	0
7744	0
7745	0
7746	0
7747	0
7748	0
7749	0
7750	0
7751	0
7752	0
7753	0
7754	0
7755	0
7756	0
7757	0
7758	0
7759	0
7760	0
7761	0
7762	0
7763	0
7764	0
7765	0
7766	0
7767	0
7768	0
7769	0
7770	0
7771	0
7772	0
7773	0
7774	0
7775	0
7776	0
7777	0
7778	0
7779	0
7780	0
7781	0
7782	0
7783	0
7784	0
7785	0
7786	0
7787	0
7788	0
7789	0
7790	0
7791	0
7792	0
7793	0
7794	0
7795	0
7796	0
7797	0
7798	0
7799	0
7800	0
7801	0
7802	0
7803	0
7804	0
7805	0
7806	0
7807	0
7808	0
7809	0
7810	0
7811	0
7812	0
7813	0
7814	0
7815	0
7816	0
7817	0
7818	0
7819	0
7820	0
7821	0
7822	0
7823	0
7824	0
7825	0
7826	0
7827	0
7828	0
7829	0
7830	0
7831	0
7832	0
7833	0
7834	0
7835	0
7836	0
7837	0
7838	0
7839	0
7840	0
7841	0
7842	0
7843	0
7844	0
7845	0
7846	0
7847	0
7848	0
7849	0
7850	0
7851	0
7852	0
7853	0
7854	0
7855	0
7856	0
7857	0
7858	0
7859	0
7860	0
7861	0
7862	0
7863	0
7864	0
7865	0
7866	0
7867	0
7868	0
7869	0
7870	0
7871	0
7872	0
7873	0
7874	0
7875	0
7876	0
7877	0
7878	0
7879	0
7880	0
7881	0
7882	0
7883	0
7884	0
7885	0
7886	0
7887	0
7888	0
7889	0
7890	0
7891	0
7892	0
7893	0
7894	0
7895	0
7896	0
7897	0
7898	0
7899	0
7900	0
7901	0
7902	0
7903	0
7904	0
7905	0
7906	0
7907	0
7908	0
7909	0
7910	0
7911	0
7912	0
7913	0
7914	0
7915	0
7916	0
7917	0
7918	0
7919	0
7920	0
7921	1
7922	0
7923	0
7924	0
7925	0
7926	0
7927	0
7928	0
7929	0
7930	0
7931	0
7932	0
7933	0
7934	0
7935	0
7936	0
7937	0
7938	0
7939	0
7940	0
7941	0
7942	0
7943	0
7944	0
7945	0
7946	0
7947	0
7948	0
7949	0
7950	0
7951	0
7952	0
7953	0
7954	0
7955	0
7956	0
7957	0
7958	0
7959	0
7960	0
7961	0
7962	0
7963	0
7964	0
7965	0
7966	0
7967	0
7968	0
7969	0
7970	0
7971	0
7972	0
7973	0
7974	0
7975	0
7976	0
7977	0
7978	0
7979	0
7980	0
7981	0
7982	0
7983	0
7984	0
7985	0
7986	0
7987	0
7988	0
7989	0
7990	0
7991	0
7992	0
7993	0
7994	0
7995	0
7996	0
7997	0
7998	0
7999	0
8000	0
8001	0
8002	0
8003	0
8004	0
8005	0
8006	0
8007	0
8008	0
8009	0
8010	0
8011	0
8012	0
8013	0
8014	0
8015	0
8016	0
8017	0
8018	0
8019	0
8020	0
8021	0
8022	0
8023	0
8024	0
8025	0
8026	0
8027	0
8028	0
8029	0
8030	0
8031	0
8032	0
8033	0
8034	0
8035	0
8036	0
8037	0
8038	0
8039	0
8040	0
8041	0
8042	0
8043	0
8044	0
8045	0
8046	0
8047	0
8048	0
8049	0
8050	0
8051	0
8052	0
8053	0
8054	0
8055	0
8056	0
8057	0
8058	0
8059	0
8060	0
8061	0
8062	0
8063	0
8064	0
8065	0
8066	0
8067	0
8068	0
8069	0
8070	0
8071	0
8072	0
8073	0
8074	0
8075	0
8076	0
8077	0
8078	0
8079	0
8080	0
8081	0
8082	0
8083	0
8084	0
8085	0
8086	0
8087	0
8088	0
8089	0
8090	0
8091	0
8092	0
8093	0
8094	0
8095	0
8096	0
8097	0
8098	0
8099	0
8100	0
8101	0
8102	0
8103	0
8104	0
8105	0
8106	0
8107	0
8108	0
8109	0
8110	0
8111	0
8112	0
8113	0
8114	0
8115	0
8116	0
8117	0
8118	0
8119	0
8120	0
8121	0
8122	0
8123	0
8124	0
8125	0
8126	0
8127	0
8128	0
8129	0
8130	0
8131	0
8132	0
8133	0
8134	0
8135	0
8136	0
8137	0
8138	0
8139	0
8140	0
8141	0
8142	0
8143	0
8144	0
8145	0
8146	0
8147	0
8148	0
8149	0
8150	0
8151	0
8152	0
8153	0
8154	0
8155	0
8156	0
8157	0
8158	0
8159	0
8160	0
8161	0
8162	0
8163	0
8164	0
8165	0
8166	0
8167	0
8168	0
8169	0
8170	0
8171	0
8172	0
8173	0
8174	0
8175	0
8176	0
8177	0
8178	0
8179	0
8180	0
8181	0
8182	0
8183	0
8184	0
8185	0
8186	0
8187	0
8188	0
8189	0
8190	0
8191	0
