0	0
1	0
2	0
3	0
4	0
5	0
6	0
7	0
8	0
9	0
10	0
11	0
12	0
13	0
14	0
15	0
16	0
17	0
18	0
19	0
20	0
21	0
22	0
23	0
24	0
25	0
26	0
27	0
28	0
29	0
30	0
31	0
32	0
33	0
34	0
35	0
36	0
37	0
38	0
39	0
40	0
41	0
42	0
43	0
44	0
45	0
46	0
47	0
48	0
49	0
50	0
51	0
52	0
53	0
54	0
55	0
56	0
57	0
58	0
59	0
60	0
61	0
62	0
63	0
64	0
65	0
66	0
67	0
68	0
69	0
70	0
71	0
72	0
73	0
74	0
75	0
76	0
77	0
78	0
79	0
80	0
81	0
82	0
83	0
84	0
85	0
86	0
87	0
88	0
89	0
90	0
91	0
92	0
93	0
94	0
95	0
96	0
97	0
98	0
99	0
100	0
101	0
102	0
103	0
104	0
105	0
106	0
107	0
108	0
109	0
110	0
111	0
112	0
113	0
114	0
115	0
116	0
117	1
118	59
119	276
120	480
121	642
122	639
123	619
124	636
125	631
126	616
127	619
128	554
129	619
130	600
131	580
132	561
133	560
134	567
135	576
136	605
137	568
138	575
139	585
140	543
141	588
142	581
143	557
144	594
145	579
146	539
147	565
148	561
149	572
150	515
151	535
152	548
153	567
154	564
155	572
156	501
157	550
158	528
159	538
160	559
161	530
162	548
163	497
164	506
165	583
166	501
167	482
168	511
169	525
170	518
171	528
172	515
173	512
174	531
175	539
176	512
177	487
178	544
179	532
180	480
181	509
182	490
183	504
184	497
185	479
186	519
187	518
188	527
189	523
190	482
191	494
192	518
193	500
194	466
195	495
196	480
197	547
198	472
199	513
200	488
201	474
202	498
203	497
204	531
205	473
206	477
207	487
208	482
209	475
210	482
211	484
212	527
213	505
214	470
215	500
216	486
217	513
218	531
219	472
220	483
221	445
222	489
223	457
224	509
225	500
226	490
227	494
228	472
229	486
230	508
231	446
232	506
233	481
234	484
235	469
236	504
237	485
238	480
239	498
240	450
241	459
242	504
243	460
244	496
245	493
246	484
247	476
248	489
249	473
250	492
251	470
252	487
253	500
254	491
255	497
256	481
257	444
258	496
259	468
260	503
261	488
262	451
263	474
264	469
265	463
266	475
267	476
268	493
269	498
270	463
271	478
272	457
273	499
274	441
275	480
276	463
277	483
278	461
279	490
280	452
281	486
282	459
283	484
284	503
285	492
286	503
287	461
288	470
289	497
290	481
291	484
292	499
293	511
294	500
295	483
296	453
297	462
298	467
299	485
300	450
301	500
302	503
303	507
304	459
305	467
306	476
307	498
308	479
309	459
310	444
311	471
312	486
313	510
314	497
315	459
316	469
317	480
318	486
319	495
320	470
321	501
322	503
323	505
324	465
325	483
326	484
327	449
328	481
329	464
330	471
331	475
332	486
333	486
334	495
335	468
336	477
337	500
338	471
339	448
340	475
341	447
342	478
343	475
344	484
345	472
346	387
347	439
348	469
349	493
350	506
351	519
352	451
353	502
354	482
355	503
356	479
357	508
358	473
359	524
360	527
361	468
362	462
363	487
364	488
365	478
366	524
367	504
368	474
369	487
370	465
371	498
372	498
373	524
374	528
375	515
376	463
377	500
378	512
379	501
380	538
381	603
382	763
383	1022
384	1085
385	995
386	771
387	561
388	484
389	469
390	490
391	481
392	453
393	500
394	511
395	458
396	522
397	488
398	510
399	507
400	493
401	502
402	509
403	476
404	492
405	449
406	505
407	455
408	471
409	514
410	531
411	510
412	504
413	499
414	498
415	490
416	452
417	517
418	489
419	522
420	541
421	581
422	568
423	574
424	505
425	485
426	502
427	481
428	485
429	431
430	513
431	497
432	472
433	512
434	473
435	460
436	500
437	481
438	486
439	498
440	492
441	468
442	469
443	494
444	496
445	475
446	520
447	466
448	524
449	432
450	478
451	474
452	509
453	490
454	492
455	504
456	499
457	475
458	470
459	458
460	485
461	487
462	463
463	482
464	477
465	475
466	474
467	532
468	496
469	472
470	445
471	502
472	476
473	470
474	483
475	488
476	448
477	463
478	516
479	481
480	474
481	479
482	476
483	468
484	496
485	516
486	551
487	501
488	490
489	491
490	462
491	500
492	502
493	491
494	485
495	519
496	548
497	510
498	485
499	485
500	510
501	503
502	502
503	534
504	498
505	536
506	479
507	496
508	500
509	497
510	471
511	564
512	545
513	518
514	520
515	509
516	560
517	522
518	541
519	561
520	565
521	525
522	551
523	518
524	546
525	546
526	574
527	544
528	472
529	555
530	523
531	558
532	553
533	555
534	584
535	516
536	527
537	560
538	552
539	559
540	555
541	546
542	576
543	576
544	569
545	586
546	597
547	557
548	642
549	623
550	583
551	664
552	611
553	628
554	647
555	625
556	641
557	650
558	664
559	623
560	626
561	638
562	621
563	678
564	617
565	605
566	602
567	636
568	644
569	634
570	651
571	621
572	596
573	668
574	563
575	648
576	622
577	584
578	610
579	580
580	622
581	595
582	584
583	626
584	614
585	593
586	586
587	570
588	579
589	548
590	569
591	614
592	584
593	578
594	569
595	587
596	563
597	538
598	609
599	549
600	569
601	560
602	597
603	574
604	534
605	546
606	542
607	553
608	554
609	602
610	556
611	578
612	562
613	595
614	632
615	638
616	585
617	607
618	611
619	600
620	581
621	605
622	619
623	622
624	597
625	572
626	593
627	643
628	619
629	633
630	659
631	633
632	662
633	680
634	646
635	645
636	614
637	636
638	604
639	578
640	580
641	617
642	642
643	623
644	577
645	633
646	557
647	569
648	584
649	605
650	570
651	628
652	598
653	600
654	572
655	566
656	601
657	600
658	541
659	618
660	539
661	570
662	565
663	541
664	590
665	526
666	558
667	566
668	519
669	546
670	563
671	545
672	539
673	537
674	573
675	506
676	528
677	517
678	541
679	528
680	521
681	572
682	519
683	511
684	508
685	511
686	572
687	528
688	542
689	507
690	493
691	527
692	552
693	535
694	509
695	488
696	500
697	501
698	545
699	511
700	502
701	553
702	542
703	500
704	519
705	532
706	506
707	495
708	467
709	552
710	536
711	489
712	468
713	474
714	454
715	529
716	498
717	543
718	494
719	528
720	459
721	518
722	482
723	465
724	499
725	493
726	472
727	488
728	481
729	515
730	482
731	471
732	505
733	513
734	486
735	532
736	479
737	532
738	491
739	504
740	485
741	495
742	484
743	513
744	520
745	541
746	530
747	491
748	456
749	487
750	500
751	483
752	512
753	511
754	471
755	472
756	498
757	487
758	506
759	506
760	509
761	482
762	492
763	547
764	480
765	482
766	493
767	469
768	471
769	478
770	496
771	472
772	484
773	476
774	494
775	449
776	465
777	444
778	457
779	508
780	493
781	448
782	462
783	469
784	510
785	465
786	491
787	477
788	455
789	478
790	469
791	463
792	473
793	469
794	498
795	466
796	502
797	501
798	496
799	481
800	456
801	480
802	452
803	484
804	505
805	434
806	502
807	479
808	464
809	480
810	459
811	478
812	455
813	492
814	469
815	481
816	443
817	512
818	468
819	474
820	452
821	482
822	480
823	458
824	498
825	451
826	463
827	454
828	444
829	475
830	439
831	494
832	470
833	469
834	463
835	449
836	460
837	460
838	462
839	438
840	493
841	479
842	500
843	474
844	460
845	412
846	462
847	479
848	454
849	490
850	458
851	515
852	473
853	481
854	496
855	488
856	469
857	457
858	479
859	477
860	458
861	462
862	455
863	445
864	489
865	479
866	510
867	458
868	475
869	480
870	482
871	494
872	472
873	484
874	495
875	484
876	449
877	426
878	433
879	439
880	485
881	503
882	436
883	480
884	432
885	484
886	455
887	453
888	505
889	512
890	486
891	426
892	483
893	465
894	469
895	476
896	468
897	472
898	486
899	471
900	468
901	472
902	440
903	471
904	485
905	453
906	472
907	488
908	468
909	484
910	515
911	480
912	462
913	425
914	479
915	442
916	468
917	465
918	489
919	472
920	489
921	445
922	478
923	485
924	466
925	454
926	482
927	456
928	507
929	496
930	506
931	492
932	458
933	473
934	446
935	478
936	424
937	486
938	462
939	435
940	491
941	481
942	458
943	469
944	443
945	447
946	488
947	452
948	436
949	472
950	471
951	448
952	474
953	450
954	437
955	432
956	429
957	414
958	465
959	423
960	463
961	410
962	409
963	416
964	448
965	435
966	398
967	417
968	453
969	423
970	461
971	426
972	459
973	428
974	382
975	422
976	420
977	429
978	419
979	396
980	417
981	429
982	397
983	422
984	403
985	432
986	413
987	433
988	423
989	413
990	445
991	449
992	409
993	411
994	410
995	380
996	430
997	422
998	426
999	437
1000	428
1001	387
1002	440
1003	387
1004	437
1005	432
1006	404
1007	395
1008	442
1009	379
1010	394
1011	394
1012	407
1013	393
1014	437
1015	456
1016	415
1017	409
1018	430
1019	428
1020	410
1021	438
1022	424
1023	389
1024	419
1025	394
1026	391
1027	418
1028	391
1029	413
1030	420
1031	392
1032	426
1033	413
1034	434
1035	434
1036	436
1037	413
1038	441
1039	433
1040	435
1041	412
1042	405
1043	382
1044	419
1045	411
1046	431
1047	412
1048	411
1049	394
1050	404
1051	391
1052	416
1053	399
1054	406
1055	410
1056	402
1057	426
1058	375
1059	443
1060	404
1061	410
1062	401
1063	430
1064	434
1065	404
1066	413
1067	417
1068	428
1069	418
1070	380
1071	418
1072	416
1073	384
1074	400
1075	374
1076	407
1077	394
1078	406
1079	431
1080	412
1081	397
1082	435
1083	436
1084	409
1085	416
1086	388
1087	388
1088	390
1089	390
1090	464
1091	406
1092	417
1093	449
1094	397
1095	390
1096	385
1097	397
1098	405
1099	401
1100	394
1101	376
1102	396
1103	401
1104	423
1105	408
1106	390
1107	394
1108	393
1109	437
1110	404
1111	382
1112	421
1113	400
1114	449
1115	404
1116	411
1117	439
1118	403
1119	391
1120	406
1121	407
1122	373
1123	407
1124	419
1125	431
1126	418
1127	426
1128	412
1129	421
1130	391
1131	396
1132	394
1133	441
1134	410
1135	408
1136	402
1137	406
1138	415
1139	444
1140	421
1141	424
1142	430
1143	414
1144	416
1145	384
1146	417
1147	438
1148	394
1149	404
1150	397
1151	473
1152	411
1153	407
1154	380
1155	415
1156	445
1157	439
1158	401
1159	410
1160	423
1161	454
1162	441
1163	405
1164	457
1165	403
1166	457
1167	427
1168	451
1169	428
1170	386
1171	429
1172	440
1173	415
1174	404
1175	437
1176	416
1177	451
1178	415
1179	434
1180	399
1181	437
1182	443
1183	447
1184	427
1185	453
1186	401
1187	409
1188	431
1189	449
1190	442
1191	454
1192	444
1193	439
1194	410
1195	438
1196	420
1197	419
1198	433
1199	433
1200	487
1201	405
1202	460
1203	461
1204	477
1205	433
1206	423
1207	420
1208	463
1209	466
1210	413
1211	455
1212	477
1213	472
1214	492
1215	433
1216	452
1217	470
1218	458
1219	457
1220	504
1221	421
1222	450
1223	462
1224	437
1225	474
1226	469
1227	473
1228	458
1229	437
1230	508
1231	405
1232	503
1233	485
1234	506
1235	436
1236	439
1237	494
1238	493
1239	465
1240	484
1241	501
1242	481
1243	449
1244	487
1245	465
1246	470
1247	492
1248	482
1249	512
1250	464
1251	519
1252	507
1253	536
1254	470
1255	500
1256	526
1257	520
1258	476
1259	498
1260	479
1261	513
1262	504
1263	496
1264	479
1265	488
1266	498
1267	475
1268	490
1269	560
1270	511
1271	486
1272	534
1273	462
1274	497
1275	470
1276	505
1277	484
1278	532
1279	521
1280	499
1281	491
1282	474
1283	503
1284	507
1285	473
1286	518
1287	468
1288	481
1289	503
1290	469
1291	472
1292	471
1293	491
1294	469
1295	477
1296	520
1297	479
1298	429
1299	455
1300	467
1301	469
1302	436
1303	435
1304	472
1305	457
1306	430
1307	409
1308	407
1309	428
1310	391
1311	378
1312	405
1313	407
1314	403
1315	374
1316	381
1317	364
1318	358
1319	350
1320	401
1321	382
1322	360
1323	367
1324	347
1325	340
1326	350
1327	352
1328	339
1329	348
1330	325
1331	352
1332	322
1333	353
1334	350
1335	310
1336	349
1337	351
1338	383
1339	339
1340	319
1341	322
1342	321
1343	319
1344	345
1345	333
1346	320
1347	289
1348	294
1349	329
1350	324
1351	297
1352	320
1353	298
1354	306
1355	345
1356	310
1357	329
1358	289
1359	284
1360	319
1361	317
1362	303
1363	303
1364	307
1365	297
1366	318
1367	309
1368	252
1369	314
1370	282
1371	311
1372	294
1373	281
1374	330
1375	272
1376	279
1377	318
1378	327
1379	293
1380	325
1381	348
1382	373
1383	458
1384	615
1385	925
1386	1379
1387	1930
1388	2530
1389	3246
1390	3763
1391	4079
1392	3857
1393	3309
1394	2567
1395	1919
1396	1270
1397	830
1398	551
1399	391
1400	347
1401	304
1402	298
1403	260
1404	243
1405	263
1406	232
1407	286
1408	279
1409	240
1410	270
1411	259
1412	280
1413	254
1414	268
1415	267
1416	228
1417	261
1418	266
1419	231
1420	240
1421	235
1422	229
1423	234
1424	245
1425	259
1426	235
1427	252
1428	227
1429	249
1430	262
1431	252
1432	230
1433	267
1434	229
1435	243
1436	255
1437	225
1438	231
1439	238
1440	246
1441	235
1442	196
1443	245
1444	238
1445	243
1446	212
1447	220
1448	238
1449	239
1450	234
1451	213
1452	278
1453	245
1454	237
1455	219
1456	223
1457	237
1458	190
1459	239
1460	239
1461	248
1462	214
1463	237
1464	228
1465	199
1466	222
1467	219
1468	210
1469	211
1470	185
1471	220
1472	223
1473	205
1474	201
1475	218
1476	211
1477	220
1478	225
1479	220
1480	208
1481	211
1482	221
1483	223
1484	189
1485	215
1486	210
1487	215
1488	220
1489	218
1490	190
1491	196
1492	200
1493	200
1494	231
1495	204
1496	204
1497	203
1498	177
1499	213
1500	204
1501	202
1502	216
1503	188
1504	225
1505	209
1506	213
1507	186
1508	196
1509	178
1510	193
1511	202
1512	212
1513	199
1514	184
1515	195
1516	213
1517	217
1518	212
1519	187
1520	186
1521	197
1522	194
1523	199
1524	185
1525	183
1526	228
1527	205
1528	182
1529	212
1530	195
1531	183
1532	197
1533	172
1534	208
1535	187
1536	191
1537	193
1538	204
1539	197
1540	189
1541	204
1542	204
1543	189
1544	193
1545	180
1546	197
1547	212
1548	157
1549	190
1550	221
1551	182
1552	177
1553	221
1554	178
1555	187
1556	164
1557	178
1558	178
1559	172
1560	164
1561	197
1562	187
1563	182
1564	169
1565	176
1566	173
1567	171
1568	197
1569	222
1570	201
1571	194
1572	188
1573	185
1574	195
1575	158
1576	163
1577	172
1578	184
1579	166
1580	168
1581	186
1582	198
1583	188
1584	187
1585	215
1586	184
1587	204
1588	160
1589	184
1590	200
1591	181
1592	209
1593	203
1594	193
1595	199
1596	190
1597	197
1598	170
1599	183
1600	210
1601	175
1602	174
1603	195
1604	203
1605	177
1606	211
1607	173
1608	187
1609	173
1610	167
1611	196
1612	165
1613	153
1614	176
1615	203
1616	209
1617	176
1618	173
1619	186
1620	199
1621	191
1622	189
1623	174
1624	192
1625	175
1626	184
1627	185
1628	171
1629	154
1630	181
1631	197
1632	175
1633	171
1634	192
1635	169
1636	164
1637	190
1638	164
1639	194
1640	169
1641	176
1642	180
1643	184
1644	189
1645	180
1646	200
1647	193
1648	188
1649	185
1650	196
1651	180
1652	182
1653	177
1654	193
1655	176
1656	153
1657	173
1658	168
1659	176
1660	187
1661	203
1662	183
1663	181
1664	179
1665	181
1666	181
1667	194
1668	163
1669	177
1670	174
1671	187
1672	198
1673	177
1674	184
1675	174
1676	186
1677	152
1678	169
1679	175
1680	169
1681	167
1682	182
1683	182
1684	190
1685	176
1686	207
1687	192
1688	157
1689	153
1690	171
1691	194
1692	173
1693	179
1694	182
1695	190
1696	158
1697	170
1698	176
1699	163
1700	182
1701	149
1702	173
1703	187
1704	177
1705	174
1706	177
1707	191
1708	184
1709	186
1710	172
1711	183
1712	177
1713	150
1714	158
1715	194
1716	173
1717	189
1718	156
1719	199
1720	186
1721	176
1722	184
1723	166
1724	158
1725	170
1726	170
1727	204
1728	171
1729	174
1730	184
1731	174
1732	195
1733	183
1734	209
1735	182
1736	191
1737	177
1738	165
1739	185
1740	171
1741	208
1742	168
1743	187
1744	204
1745	169
1746	181
1747	185
1748	181
1749	191
1750	189
1751	186
1752	187
1753	184
1754	208
1755	175
1756	201
1757	183
1758	217
1759	192
1760	196
1761	188
1762	170
1763	172
1764	198
1765	189
1766	202
1767	198
1768	184
1769	184
1770	186
1771	207
1772	213
1773	239
1774	282
1775	503
1776	1010
1777	2364
1778	5717
1779	12210
1780	19689
1781	24286
1782	22856
1783	16450
1784	8557
1785	3217
1786	920
1787	329
1788	197
1789	176
1790	142
1791	189
1792	117
1793	148
1794	153
1795	164
1796	157
1797	141
1798	154
1799	122
1800	138
1801	148
1802	152
1803	125
1804	134
1805	150
1806	158
1807	145
1808	158
1809	165
1810	159
1811	151
1812	158
1813	126
1814	152
1815	162
1816	154
1817	126
1818	152
1819	163
1820	151
1821	118
1822	133
1823	150
1824	142
1825	158
1826	148
1827	132
1828	151
1829	127
1830	149
1831	146
1832	142
1833	128
1834	139
1835	129
1836	152
1837	144
1838	137
1839	145
1840	143
1841	151
1842	157
1843	146
1844	147
1845	141
1846	126
1847	155
1848	142
1849	136
1850	126
1851	174
1852	145
1853	150
1854	144
1855	159
1856	143
1857	162
1858	154
1859	121
1860	124
1861	137
1862	131
1863	142
1864	111
1865	120
1866	162
1867	148
1868	142
1869	144
1870	151
1871	146
1872	140
1873	146
1874	144
1875	135
1876	150
1877	141
1878	115
1879	140
1880	154
1881	132
1882	142
1883	136
1884	163
1885	149
1886	154
1887	148
1888	151
1889	129
1890	139
1891	145
1892	145
1893	134
1894	141
1895	142
1896	135
1897	117
1898	137
1899	140
1900	131
1901	158
1902	139
1903	159
1904	151
1905	136
1906	141
1907	127
1908	138
1909	144
1910	152
1911	130
1912	135
1913	156
1914	154
1915	158
1916	141
1917	135
1918	147
1919	151
1920	118
1921	134
1922	138
1923	135
1924	132
1925	149
1926	130
1927	145
1928	136
1929	146
1930	124
1931	156
1932	145
1933	138
1934	131
1935	134
1936	131
1937	134
1938	149
1939	161
1940	132
1941	144
1942	133
1943	165
1944	153
1945	142
1946	162
1947	140
1948	137
1949	152
1950	129
1951	130
1952	161
1953	142
1954	166
1955	146
1956	145
1957	158
1958	158
1959	156
1960	135
1961	146
1962	152
1963	185
1964	172
1965	154
1966	150
1967	131
1968	181
1969	159
1970	143
1971	150
1972	140
1973	139
1974	153
1975	146
1976	143
1977	147
1978	138
1979	150
1980	149
1981	158
1982	152
1983	165
1984	144
1985	134
1986	119
1987	158
1988	130
1989	153
1990	145
1991	146
1992	167
1993	147
1994	136
1995	150
1996	142
1997	149
1998	135
1999	160
2000	152
2001	139
2002	145
2003	149
2004	153
2005	150
2006	146
2007	128
2008	145
2009	161
2010	141
2011	143
2012	142
2013	141
2014	148
2015	140
2016	132
2017	162
2018	154
2019	131
2020	143
2021	167
2022	137
2023	146
2024	131
2025	158
2026	157
2027	134
2028	164
2029	153
2030	141
2031	129
2032	165
2033	169
2034	168
2035	157
2036	161
2037	160
2038	145
2039	135
2040	151
2041	141
2042	174
2043	146
2044	138
2045	158
2046	139
2047	168
2048	152
2049	159
2050	152
2051	161
2052	165
2053	155
2054	170
2055	159
2056	164
2057	167
2058	154
2059	167
2060	130
2061	150
2062	159
2063	151
2064	138
2065	164
2066	162
2067	157
2068	144
2069	153
2070	164
2071	156
2072	170
2073	176
2074	144
2075	161
2076	160
2077	165
2078	173
2079	136
2080	166
2081	169
2082	138
2083	143
2084	154
2085	147
2086	150
2087	169
2088	169
2089	164
2090	153
2091	167
2092	168
2093	155
2094	173
2095	140
2096	143
2097	169
2098	163
2099	154
2100	149
2101	165
2102	153
2103	139
2104	140
2105	151
2106	142
2107	159
2108	157
2109	155
2110	141
2111	159
2112	158
2113	143
2114	157
2115	149
2116	162
2117	169
2118	166
2119	172
2120	170
2121	163
2122	165
2123	173
2124	150
2125	152
2126	175
2127	176
2128	150
2129	153
2130	143
2131	148
2132	171
2133	157
2134	138
2135	135
2136	154
2137	155
2138	132
2139	155
2140	160
2141	179
2142	140
2143	154
2144	167
2145	174
2146	171
2147	173
2148	157
2149	181
2150	144
2151	151
2152	153
2153	179
2154	162
2155	192
2156	170
2157	194
2158	158
2159	183
2160	146
2161	174
2162	166
2163	148
2164	156
2165	157
2166	164
2167	161
2168	170
2169	196
2170	181
2171	186
2172	172
2173	155
2174	151
2175	169
2176	166
2177	163
2178	158
2179	166
2180	173
2181	172
2182	172
2183	185
2184	160
2185	177
2186	187
2187	180
2188	169
2189	170
2190	180
2191	173
2192	170
2193	173
2194	198
2195	189
2196	179
2197	205
2198	177
2199	187
2200	168
2201	183
2202	177
2203	169
2204	162
2205	155
2206	173
2207	162
2208	180
2209	166
2210	179
2211	179
2212	168
2213	157
2214	162
2215	169
2216	178
2217	160
2218	165
2219	155
2220	148
2221	174
2222	218
2223	153
2224	166
2225	174
2226	177
2227	182
2228	151
2229	172
2230	162
2231	162
2232	174
2233	151
2234	177
2235	154
2236	186
2237	142
2238	177
2239	151
2240	173
2241	153
2242	180
2243	150
2244	152
2245	176
2246	156
2247	160
2248	176
2249	157
2250	169
2251	177
2252	178
2253	162
2254	182
2255	184
2256	187
2257	187
2258	180
2259	186
2260	174
2261	198
2262	174
2263	160
2264	182
2265	166
2266	172
2267	202
2268	184
2269	202
2270	149
2271	161
2272	172
2273	176
2274	172
2275	169
2276	177
2277	168
2278	179
2279	186
2280	181
2281	166
2282	192
2283	185
2284	172
2285	202
2286	190
2287	203
2288	169
2289	175
2290	167
2291	197
2292	196
2293	181
2294	211
2295	170
2296	152
2297	174
2298	178
2299	178
2300	179
2301	182
2302	194
2303	195
2304	219
2305	157
2306	197
2307	195
2308	199
2309	212
2310	200
2311	187
2312	183
2313	186
2314	208
2315	177
2316	166
2317	190
2318	176
2319	197
2320	194
2321	183
2322	164
2323	169
2324	185
2325	201
2326	167
2327	193
2328	201
2329	163
2330	194
2331	190
2332	188
2333	186
2334	184
2335	196
2336	229
2337	189
2338	206
2339	176
2340	185
2341	192
2342	180
2343	189
2344	202
2345	187
2346	188
2347	193
2348	178
2349	174
2350	194
2351	197
2352	195
2353	209
2354	194
2355	208
2356	216
2357	167
2358	181
2359	219
2360	184
2361	204
2362	203
2363	188
2364	208
2365	227
2366	196
2367	204
2368	193
2369	209
2370	216
2371	207
2372	185
2373	216
2374	210
2375	209
2376	209
2377	204
2378	199
2379	214
2380	216
2381	204
2382	216
2383	208
2384	224
2385	218
2386	203
2387	191
2388	217
2389	221
2390	201
2391	200
2392	162
2393	177
2394	205
2395	216
2396	227
2397	196
2398	213
2399	196
2400	201
2401	235
2402	180
2403	229
2404	201
2405	215
2406	216
2407	180
2408	229
2409	208
2410	213
2411	210
2412	212
2413	196
2414	216
2415	244
2416	214
2417	192
2418	244
2419	186
2420	204
2421	224
2422	206
2423	220
2424	236
2425	210
2426	213
2427	205
2428	223
2429	214
2430	223
2431	233
2432	222
2433	236
2434	217
2435	248
2436	212
2437	211
2438	226
2439	205
2440	217
2441	222
2442	236
2443	222
2444	237
2445	229
2446	228
2447	213
2448	228
2449	257
2450	233
2451	210
2452	241
2453	229
2454	226
2455	229
2456	257
2457	216
2458	238
2459	243
2460	255
2461	236
2462	239
2463	247
2464	220
2465	223
2466	257
2467	232
2468	216
2469	222
2470	214
2471	215
2472	253
2473	252
2474	233
2475	226
2476	256
2477	248
2478	237
2479	258
2480	249
2481	243
2482	238
2483	251
2484	250
2485	260
2486	261
2487	242
2488	291
2489	233
2490	232
2491	242
2492	241
2493	239
2494	211
2495	231
2496	256
2497	253
2498	256
2499	218
2500	243
2501	259
2502	244
2503	285
2504	217
2505	231
2506	234
2507	242
2508	269
2509	269
2510	227
2511	259
2512	240
2513	277
2514	232
2515	262
2516	222
2517	247
2518	239
2519	246
2520	241
2521	262
2522	263
2523	263
2524	268
2525	279
2526	281
2527	264
2528	272
2529	248
2530	266
2531	264
2532	267
2533	266
2534	259
2535	262
2536	234
2537	271
2538	253
2539	250
2540	252
2541	260
2542	276
2543	217
2544	246
2545	297
2546	262
2547	244
2548	252
2549	263
2550	264
2551	283
2552	291
2553	209
2554	233
2555	247
2556	278
2557	271
2558	227
2559	239
2560	232
2561	242
2562	252
2563	246
2564	229
2565	218
2566	229
2567	220
2568	212
2569	238
2570	211
2571	204
2572	224
2573	227
2574	194
2575	205
2576	221
2577	218
2578	195
2579	203
2580	196
2581	207
2582	204
2583	195
2584	200
2585	220
2586	208
2587	191
2588	219
2589	205
2590	195
2591	201
2592	204
2593	185
2594	205
2595	203
2596	185
2597	213
2598	187
2599	200
2600	203
2601	186
2602	204
2603	204
2604	198
2605	182
2606	198
2607	186
2608	184
2609	207
2610	219
2611	210
2612	184
2613	211
2614	166
2615	154
2616	173
2617	191
2618	178
2619	193
2620	161
2621	205
2622	190
2623	189
2624	193
2625	194
2626	207
2627	171
2628	190
2629	151
2630	169
2631	174
2632	173
2633	176
2634	203
2635	183
2636	185
2637	203
2638	178
2639	194
2640	203
2641	193
2642	200
2643	194
2644	180
2645	188
2646	184
2647	197
2648	177
2649	178
2650	212
2651	189
2652	158
2653	198
2654	197
2655	202
2656	174
2657	179
2658	170
2659	188
2660	170
2661	185
2662	182
2663	189
2664	209
2665	196
2666	201
2667	197
2668	185
2669	184
2670	187
2671	168
2672	163
2673	183
2674	180
2675	179
2676	197
2677	187
2678	179
2679	176
2680	177
2681	177
2682	172
2683	217
2684	195
2685	171
2686	184
2687	167
2688	165
2689	161
2690	174
2691	169
2692	168
2693	166
2694	182
2695	165
2696	200
2697	170
2698	209
2699	195
2700	189
2701	156
2702	195
2703	184
2704	184
2705	193
2706	160
2707	194
2708	173
2709	197
2710	193
2711	172
2712	193
2713	172
2714	174
2715	174
2716	166
2717	194
2718	176
2719	180
2720	196
2721	167
2722	206
2723	177
2724	186
2725	157
2726	171
2727	174
2728	177
2729	161
2730	153
2731	169
2732	201
2733	175
2734	196
2735	172
2736	185
2737	164
2738	170
2739	177
2740	168
2741	174
2742	182
2743	186
2744	178
2745	189
2746	175
2747	180
2748	183
2749	172
2750	200
2751	195
2752	170
2753	167
2754	178
2755	180
2756	139
2757	203
2758	164
2759	177
2760	204
2761	168
2762	173
2763	184
2764	167
2765	203
2766	144
2767	168
2768	145
2769	155
2770	174
2771	149
2772	170
2773	161
2774	188
2775	183
2776	156
2777	175
2778	201
2779	171
2780	179
2781	167
2782	157
2783	176
2784	167
2785	158
2786	164
2787	173
2788	172
2789	168
2790	187
2791	177
2792	177
2793	184
2794	180
2795	152
2796	169
2797	165
2798	164
2799	149
2800	172
2801	166
2802	158
2803	180
2804	185
2805	173
2806	175
2807	180
2808	167
2809	162
2810	177
2811	142
2812	176
2813	173
2814	177
2815	198
2816	161
2817	173
2818	145
2819	151
2820	152
2821	178
2822	159
2823	170
2824	154
2825	184
2826	159
2827	172
2828	181
2829	179
2830	173
2831	169
2832	163
2833	181
2834	170
2835	164
2836	172
2837	138
2838	147
2839	161
2840	166
2841	173
2842	153
2843	173
2844	153
2845	155
2846	149
2847	170
2848	160
2849	158
2850	182
2851	171
2852	172
2853	161
2854	151
2855	193
2856	193
2857	141
2858	170
2859	160
2860	179
2861	167
2862	149
2863	161
2864	153
2865	163
2866	164
2867	170
2868	145
2869	165
2870	177
2871	163
2872	170
2873	199
2874	188
2875	175
2876	152
2877	188
2878	155
2879	147
2880	172
2881	169
2882	175
2883	184
2884	157
2885	197
2886	191
2887	162
2888	161
2889	193
2890	168
2891	140
2892	163
2893	179
2894	178
2895	173
2896	167
2897	159
2898	173
2899	200
2900	158
2901	184
2902	161
2903	179
2904	147
2905	178
2906	192
2907	168
2908	166
2909	188
2910	175
2911	172
2912	162
2913	153
2914	185
2915	195
2916	185
2917	172
2918	185
2919	198
2920	162
2921	184
2922	174
2923	187
2924	151
2925	169
2926	162
2927	170
2928	175
2929	171
2930	219
2931	179
2932	189
2933	164
2934	180
2935	168
2936	182
2937	163
2938	159
2939	165
2940	178
2941	194
2942	189
2943	196
2944	199
2945	149
2946	187
2947	189
2948	181
2949	177
2950	194
2951	178
2952	190
2953	170
2954	196
2955	177
2956	165
2957	147
2958	149
2959	157
2960	194
2961	168
2962	149
2963	155
2964	152
2965	149
2966	120
2967	138
2968	147
2969	128
2970	135
2971	137
2972	132
2973	141
2974	140
2975	138
2976	109
2977	127
2978	123
2979	114
2980	122
2981	111
2982	125
2983	93
2984	143
2985	116
2986	103
2987	125
2988	105
2989	112
2990	114
2991	101
2992	123
2993	127
2994	116
2995	98
2996	111
2997	109
2998	109
2999	103
3000	105
3001	109
3002	100
3003	96
3004	104
3005	104
3006	120
3007	117
3008	116
3009	120
3010	87
3011	92
3012	104
3013	104
3014	84
3015	97
3016	101
3017	97
3018	92
3019	93
3020	112
3021	111
3022	93
3023	102
3024	98
3025	95
3026	96
3027	114
3028	94
3029	81
3030	101
3031	108
3032	103
3033	102
3034	114
3035	105
3036	97
3037	80
3038	89
3039	86
3040	108
3041	90
3042	97
3043	113
3044	103
3045	79
3046	80
3047	89
3048	86
3049	94
3050	100
3051	95
3052	89
3053	102
3054	77
3055	92
3056	103
3057	99
3058	89
3059	83
3060	78
3061	80
3062	87
3063	102
3064	82
3065	106
3066	89
3067	81
3068	81
3069	96
3070	80
3071	105
3072	74
3073	74
3074	81
3075	98
3076	82
3077	85
3078	82
3079	90
3080	92
3081	95
3082	93
3083	93
3084	85
3085	88
3086	97
3087	84
3088	98
3089	77
3090	86
3091	78
3092	85
3093	89
3094	93
3095	86
3096	94
3097	98
3098	104
3099	149
3100	218
3101	434
3102	1076
3103	2300
3104	4739
3105	7723
3106	10005
3107	10802
3108	9461
3109	6796
3110	3527
3111	1579
3112	555
3113	209
3114	117
3115	94
3116	68
3117	71
3118	92
3119	79
3120	75
3121	67
3122	70
3123	84
3124	75
3125	80
3126	74
3127	59
3128	68
3129	61
3130	60
3131	76
3132	61
3133	76
3134	65
3135	64
3136	58
3137	64
3138	53
3139	66
3140	62
3141	64
3142	78
3143	64
3144	60
3145	57
3146	41
3147	44
3148	56
3149	53
3150	65
3151	63
3152	69
3153	50
3154	62
3155	63
3156	48
3157	46
3158	52
3159	47
3160	64
3161	48
3162	54
3163	42
3164	63
3165	46
3166	30
3167	55
3168	43
3169	70
3170	56
3171	44
3172	41
3173	41
3174	57
3175	42
3176	44
3177	51
3178	49
3179	46
3180	45
3181	48
3182	42
3183	52
3184	52
3185	47
3186	47
3187	38
3188	38
3189	44
3190	39
3191	49
3192	46
3193	51
3194	35
3195	55
3196	39
3197	50
3198	39
3199	42
3200	50
3201	42
3202	41
3203	36
3204	30
3205	32
3206	38
3207	46
3208	33
3209	30
3210	39
3211	37
3212	31
3213	32
3214	31
3215	42
3216	25
3217	45
3218	39
3219	35
3220	42
3221	41
3222	48
3223	39
3224	28
3225	38
3226	34
3227	32
3228	31
3229	35
3230	30
3231	20
3232	27
3233	28
3234	44
3235	29
3236	27
3237	25
3238	33
3239	37
3240	36
3241	28
3242	27
3243	25
3244	31
3245	36
3246	30
3247	25
3248	26
3249	38
3250	28
3251	23
3252	25
3253	31
3254	33
3255	32
3256	30
3257	27
3258	24
3259	25
3260	34
3261	32
3262	22
3263	34
3264	24
3265	25
3266	25
3267	35
3268	18
3269	25
3270	35
3271	31
3272	37
3273	21
3274	21
3275	14
3276	23
3277	24
3278	22
3279	30
3280	26
3281	26
3282	26
3283	33
3284	23
3285	16
3286	30
3287	17
3288	19
3289	15
3290	22
3291	19
3292	18
3293	34
3294	23
3295	18
3296	20
3297	27
3298	23
3299	19
3300	16
3301	18
3302	27
3303	18
3304	24
3305	21
3306	19
3307	22
3308	14
3309	16
3310	19
3311	20
3312	20
3313	20
3314	23
3315	20
3316	18
3317	21
3318	18
3319	21
3320	20
3321	19
3322	34
3323	18
3324	25
3325	22
3326	26
3327	31
3328	23
3329	22
3330	19
3331	27
3332	20
3333	25
3334	18
3335	18
3336	20
3337	27
3338	18
3339	23
3340	29
3341	30
3342	20
3343	24
3344	19
3345	22
3346	25
3347	20
3348	21
3349	22
3350	17
3351	22
3352	18
3353	18
3354	27
3355	21
3356	13
3357	20
3358	20
3359	31
3360	35
3361	31
3362	27
3363	43
3364	100
3365	218
3366	453
3367	855
3368	1168
3369	1441
3370	1488
3371	1144
3372	739
3373	394
3374	175
3375	69
3376	32
3377	28
3378	25
3379	20
3380	21
3381	15
3382	27
3383	15
3384	15
3385	15
3386	11
3387	22
3388	18
3389	23
3390	30
3391	16
3392	19
3393	19
3394	21
3395	20
3396	15
3397	10
3398	16
3399	16
3400	22
3401	14
3402	17
3403	22
3404	21
3405	21
3406	14
3407	21
3408	17
3409	16
3410	17
3411	24
3412	11
3413	16
3414	18
3415	17
3416	22
3417	21
3418	18
3419	18
3420	20
3421	21
3422	14
3423	21
3424	21
3425	10
3426	10
3427	20
3428	17
3429	12
3430	17
3431	25
3432	15
3433	14
3434	17
3435	18
3436	23
3437	11
3438	15
3439	23
3440	14
3441	17
3442	19
3443	19
3444	19
3445	19
3446	19
3447	19
3448	16
3449	16
3450	17
3451	12
3452	19
3453	19
3454	24
3455	13
3456	12
3457	17
3458	12
3459	18
3460	16
3461	19
3462	13
3463	10
3464	17
3465	18
3466	17
3467	18
3468	16
3469	14
3470	12
3471	22
3472	22
3473	18
3474	17
3475	20
3476	11
3477	18
3478	14
3479	27
3480	22
3481	15
3482	16
3483	25
3484	24
3485	13
3486	16
3487	25
3488	13
3489	11
3490	20
3491	18
3492	24
3493	34
3494	17
3495	25
3496	15
3497	24
3498	26
3499	27
3500	23
3501	28
3502	22
3503	23
3504	13
3505	19
3506	30
3507	20
3508	25
3509	21
3510	21
3511	42
3512	89
3513	205
3514	505
3515	1260
3516	2572
3517	4587
3518	7203
3519	9021
3520	9306
3521	7980
3522	5328
3523	3025
3524	1309
3525	432
3526	159
3527	45
3528	27
3529	16
3530	18
3531	15
3532	17
3533	20
3534	18
3535	14
3536	15
3537	14
3538	10
3539	14
3540	7
3541	10
3542	10
3543	15
3544	7
3545	13
3546	6
3547	5
3548	10
3549	9
3550	13
3551	8
3552	8
3553	12
3554	7
3555	4
3556	10
3557	11
3558	10
3559	12
3560	12
3561	7
3562	12
3563	11
3564	9
3565	11
3566	14
3567	10
3568	9
3569	5
3570	5
3571	7
3572	10
3573	6
3574	6
3575	11
3576	4
3577	6
3578	5
3579	9
3580	2
3581	9
3582	6
3583	8
3584	7
3585	10
3586	3
3587	9
3588	9
3589	12
3590	4
3591	7
3592	5
3593	10
3594	4
3595	3
3596	8
3597	10
3598	2
3599	10
3600	8
3601	14
3602	8
3603	5
3604	3
3605	8
3606	9
3607	7
3608	4
3609	5
3610	7
3611	6
3612	8
3613	7
3614	9
3615	10
3616	8
3617	5
3618	5
3619	5
3620	9
3621	11
3622	9
3623	7
3624	6
3625	8
3626	5
3627	7
3628	9
3629	7
3630	9
3631	8
3632	7
3633	8
3634	8
3635	4
3636	5
3637	7
3638	6
3639	7
3640	8
3641	6
3642	6
3643	6
3644	7
3645	6
3646	8
3647	7
3648	6
3649	5
3650	6
3651	9
3652	5
3653	12
3654	6
3655	6
3656	9
3657	7
3658	9
3659	4
3660	5
3661	7
3662	2
3663	8
3664	10
3665	7
3666	7
3667	10
3668	6
3669	7
3670	10
3671	5
3672	7
3673	8
3674	9
3675	6
3676	8
3677	5
3678	7
3679	4
3680	6
3681	8
3682	2
3683	9
3684	7
3685	9
3686	10
3687	3
3688	4
3689	7
3690	8
3691	10
3692	9
3693	6
3694	7
3695	7
3696	9
3697	5
3698	7
3699	7
3700	6
3701	7
3702	7
3703	7
3704	5
3705	5
3706	8
3707	4
3708	8
3709	3
3710	7
3711	9
3712	6
3713	11
3714	5
3715	12
3716	6
3717	9
3718	6
3719	0
3720	8
3721	7
3722	5
3723	4
3724	10
3725	3
3726	6
3727	6
3728	7
3729	5
3730	6
3731	7
3732	2
3733	6
3734	8
3735	3
3736	6
3737	11
3738	5
3739	10
3740	6
3741	6
3742	8
3743	2
3744	6
3745	8
3746	2
3747	4
3748	5
3749	6
3750	6
3751	7
3752	8
3753	8
3754	7
3755	5
3756	4
3757	10
3758	5
3759	7
3760	5
3761	5
3762	4
3763	5
3764	7
3765	4
3766	5
3767	4
3768	6
3769	6
3770	6
3771	5
3772	6
3773	11
3774	8
3775	3
3776	4
3777	4
3778	10
3779	5
3780	8
3781	3
3782	2
3783	3
3784	8
3785	6
3786	6
3787	5
3788	8
3789	8
3790	9
3791	7
3792	4
3793	8
3794	4
3795	6
3796	3
3797	5
3798	9
3799	3
3800	4
3801	10
3802	6
3803	6
3804	8
3805	8
3806	5
3807	3
3808	11
3809	6
3810	7
3811	4
3812	3
3813	4
3814	4
3815	7
3816	9
3817	6
3818	8
3819	3
3820	2
3821	2
3822	4
3823	5
3824	6
3825	5
3826	6
3827	5
3828	5
3829	4
3830	4
3831	2
3832	4
3833	7
3834	10
3835	5
3836	8
3837	9
3838	7
3839	8
3840	3
3841	3
3842	5
3843	4
3844	7
3845	6
3846	3
3847	4
3848	10
3849	2
3850	4
3851	10
3852	6
3853	8
3854	2
3855	7
3856	4
3857	11
3858	7
3859	8
3860	3
3861	5
3862	1
3863	6
3864	11
3865	1
3866	3
3867	1
3868	8
3869	12
3870	7
3871	3
3872	9
3873	2
3874	4
3875	5
3876	2
3877	9
3878	5
3879	9
3880	5
3881	4
3882	7
3883	6
3884	7
3885	4
3886	3
3887	4
3888	7
3889	11
3890	5
3891	4
3892	5
3893	6
3894	3
3895	8
3896	9
3897	2
3898	5
3899	6
3900	7
3901	2
3902	6
3903	5
3904	6
3905	4
3906	6
3907	8
3908	7
3909	6
3910	4
3911	8
3912	5
3913	3
3914	6
3915	7
3916	3
3917	10
3918	4
3919	4
3920	4
3921	7
3922	4
3923	5
3924	5
3925	5
3926	6
3927	3
3928	5
3929	5
3930	8
3931	1
3932	4
3933	5
3934	1
3935	6
3936	2
3937	7
3938	4
3939	4
3940	7
3941	7
3942	3
3943	8
3944	9
3945	6
3946	6
3947	5
3948	4
3949	5
3950	4
3951	1
3952	8
3953	9
3954	4
3955	4
3956	8
3957	6
3958	2
3959	4
3960	4
3961	3
3962	0
3963	5
3964	2
3965	6
3966	3
3967	3
3968	3
3969	3
3970	5
3971	7
3972	4
3973	2
3974	7
3975	5
3976	4
3977	6
3978	3
3979	2
3980	5
3981	6
3982	4
3983	3
3984	4
3985	3
3986	4
3987	3
3988	5
3989	4
3990	7
3991	6
3992	6
3993	10
3994	2
3995	4
3996	8
3997	4
3998	5
3999	5
4000	5
4001	4
4002	2
4003	6
4004	4
4005	5
4006	4
4007	1
4008	4
4009	4
4010	4
4011	5
4012	5
4013	5
4014	4
4015	2
4016	2
4017	7
4018	4
4019	0
4020	4
4021	3
4022	7
4023	4
4024	5
4025	7
4026	1
4027	6
4028	12
4029	5
4030	5
4031	5
4032	3
4033	5
4034	2
4035	5
4036	3
4037	4
4038	2
4039	3
4040	4
4041	6
4042	8
4043	3
4044	5
4045	3
4046	2
4047	4
4048	6
4049	2
4050	5
4051	6
4052	2
4053	3
4054	6
4055	10
4056	5
4057	2
4058	4
4059	8
4060	9
4061	8
4062	7
4063	5
4064	8
4065	5
4066	9
4067	7
4068	5
4069	5
4070	4
4071	8
4072	4
4073	10
4074	3
4075	8
4076	8
4077	3
4078	2
4079	5
4080	6
4081	6
4082	9
4083	6
4084	6
4085	3
4086	7
4087	4
4088	2
4089	2
4090	10
4091	3
4092	5
4093	2
4094	3
4095	3
4096	5
4097	11
4098	3
4099	5
4100	1
4101	5
4102	6
4103	3
4104	6
4105	4
4106	4
4107	2
4108	7
4109	8
4110	3
4111	6
4112	3
4113	10
4114	9
4115	3
4116	6
4117	1
4118	9
4119	6
4120	8
4121	3
4122	10
4123	2
4124	4
4125	5
4126	6
4127	4
4128	8
4129	4
4130	3
4131	8
4132	3
4133	4
4134	1
4135	2
4136	2
4137	5
4138	7
4139	2
4140	8
4141	3
4142	4
4143	2
4144	3
4145	8
4146	6
4147	3
4148	5
4149	2
4150	8
4151	6
4152	6
4153	8
4154	4
4155	8
4156	3
4157	1
4158	6
4159	4
4160	1
4161	5
4162	4
4163	3
4164	1
4165	4
4166	3
4167	3
4168	3
4169	4
4170	3
4171	7
4172	8
4173	4
4174	3
4175	4
4176	4
4177	3
4178	5
4179	3
4180	7
4181	5
4182	4
4183	7
4184	3
4185	6
4186	6
4187	3
4188	1
4189	6
4190	3
4191	0
4192	3
4193	3
4194	10
4195	3
4196	4
4197	3
4198	4
4199	4
4200	5
4201	5
4202	6
4203	5
4204	4
4205	4
4206	7
4207	6
4208	2
4209	7
4210	5
4211	3
4212	3
4213	3
4214	4
4215	7
4216	3
4217	3
4218	4
4219	6
4220	4
4221	2
4222	3
4223	4
4224	3
4225	3
4226	3
4227	3
4228	3
4229	4
4230	8
4231	2
4232	6
4233	3
4234	6
4235	7
4236	2
4237	3
4238	7
4239	2
4240	8
4241	0
4242	4
4243	2
4244	8
4245	4
4246	6
4247	1
4248	3
4249	4
4250	7
4251	3
4252	8
4253	4
4254	7
4255	4
4256	7
4257	5
4258	3
4259	3
4260	8
4261	3
4262	3
4263	5
4264	5
4265	1
4266	7
4267	4
4268	7
4269	2
4270	6
4271	6
4272	2
4273	10
4274	3
4275	3
4276	5
4277	10
4278	0
4279	6
4280	3
4281	4
4282	3
4283	3
4284	6
4285	3
4286	3
4287	2
4288	4
4289	5
4290	8
4291	5
4292	4
4293	8
4294	6
4295	4
4296	0
4297	7
4298	6
4299	3
4300	8
4301	3
4302	3
4303	4
4304	11
4305	5
4306	5
4307	6
4308	6
4309	2
4310	3
4311	4
4312	3
4313	3
4314	3
4315	12
4316	6
4317	1
4318	4
4319	4
4320	3
4321	2
4322	2
4323	1
4324	4
4325	6
4326	2
4327	4
4328	2
4329	4
4330	3
4331	6
4332	3
4333	5
4334	3
4335	4
4336	6
4337	1
4338	0
4339	5
4340	4
4341	2
4342	3
4343	0
4344	4
4345	4
4346	4
4347	6
4348	5
4349	3
4350	8
4351	6
4352	5
4353	7
4354	3
4355	2
4356	6
4357	1
4358	6
4359	2
4360	7
4361	3
4362	7
4363	3
4364	2
4365	4
4366	7
4367	2
4368	0
4369	1
4370	3
4371	5
4372	7
4373	2
4374	5
4375	1
4376	3
4377	4
4378	1
4379	6
4380	2
4381	2
4382	5
4383	7
4384	8
4385	6
4386	3
4387	1
4388	7
4389	2
4390	4
4391	6
4392	2
4393	3
4394	7
4395	5
4396	3
4397	1
4398	3
4399	7
4400	6
4401	5
4402	8
4403	7
4404	3
4405	5
4406	3
4407	3
4408	3
4409	7
4410	1
4411	3
4412	1
4413	5
4414	3
4415	1
4416	5
4417	4
4418	6
4419	3
4420	5
4421	3
4422	4
4423	1
4424	4
4425	2
4426	2
4427	8
4428	1
4429	7
4430	5
4431	2
4432	5
4433	0
4434	4
4435	4
4436	6
4437	6
4438	2
4439	4
4440	7
4441	1
4442	4
4443	2
4444	3
4445	4
4446	2
4447	4
4448	4
4449	3
4450	1
4451	4
4452	5
4453	3
4454	3
4455	1
4456	4
4457	4
4458	4
4459	7
4460	4
4461	1
4462	2
4463	5
4464	1
4465	3
4466	2
4467	4
4468	3
4469	6
4470	7
4471	1
4472	5
4473	2
4474	3
4475	3
4476	4
4477	4
4478	6
4479	6
4480	3
4481	4
4482	7
4483	3
4484	4
4485	4
4486	5
4487	5
4488	3
4489	3
4490	3
4491	5
4492	3
4493	1
4494	3
4495	2
4496	1
4497	5
4498	2
4499	4
4500	5
4501	2
4502	3
4503	3
4504	1
4505	3
4506	3
4507	5
4508	7
4509	8
4510	1
4511	4
4512	3
4513	2
4514	8
4515	5
4516	2
4517	5
4518	1
4519	3
4520	3
4521	2
4522	7
4523	4
4524	4
4525	2
4526	1
4527	3
4528	7
4529	8
4530	5
4531	4
4532	4
4533	5
4534	4
4535	6
4536	3
4537	7
4538	3
4539	5
4540	10
4541	2
4542	3
4543	2
4544	1
4545	5
4546	4
4547	7
4548	4
4549	4
4550	6
4551	2
4552	7
4553	3
4554	1
4555	3
4556	3
4557	2
4558	2
4559	2
4560	5
4561	5
4562	5
4563	1
4564	4
4565	4
4566	3
4567	3
4568	2
4569	2
4570	2
4571	1
4572	3
4573	4
4574	3
4575	4
4576	7
4577	5
4578	5
4579	8
4580	2
4581	3
4582	4
4583	8
4584	0
4585	4
4586	4
4587	3
4588	5
4589	3
4590	2
4591	4
4592	2
4593	2
4594	6
4595	3
4596	1
4597	3
4598	6
4599	8
4600	3
4601	2
4602	3
4603	3
4604	2
4605	4
4606	3
4607	5
4608	3
4609	5
4610	4
4611	3
4612	4
4613	2
4614	3
4615	2
4616	1
4617	1
4618	0
4619	1
4620	1
4621	8
4622	1
4623	2
4624	5
4625	0
4626	5
4627	2
4628	2
4629	0
4630	2
4631	5
4632	1
4633	3
4634	3
4635	3
4636	5
4637	4
4638	2
4639	4
4640	1
4641	5
4642	2
4643	2
4644	6
4645	2
4646	1
4647	5
4648	2
4649	2
4650	5
4651	4
4652	5
4653	5
4654	5
4655	7
4656	5
4657	7
4658	3
4659	2
4660	5
4661	3
4662	5
4663	3
4664	2
4665	2
4666	1
4667	0
4668	5
4669	4
4670	2
4671	7
4672	5
4673	2
4674	4
4675	2
4676	9
4677	7
4678	6
4679	5
4680	8
4681	0
4682	1
4683	3
4684	0
4685	3
4686	6
4687	5
4688	10
4689	10
4690	15
4691	13
4692	24
4693	30
4694	26
4695	23
4696	24
4697	12
4698	8
4699	14
4700	8
4701	7
4702	1
4703	0
4704	7
4705	4
4706	2
4707	6
4708	2
4709	2
4710	3
4711	8
4712	2
4713	3
4714	3
4715	4
4716	5
4717	3
4718	6
4719	4
4720	4
4721	6
4722	3
4723	5
4724	1
4725	5
4726	5
4727	2
4728	3
4729	6
4730	2
4731	1
4732	4
4733	4
4734	3
4735	2
4736	4
4737	3
4738	5
4739	3
4740	2
4741	2
4742	5
4743	3
4744	4
4745	1
4746	0
4747	6
4748	3
4749	6
4750	0
4751	4
4752	6
4753	1
4754	2
4755	3
4756	2
4757	6
4758	3
4759	4
4760	4
4761	4
4762	0
4763	4
4764	2
4765	4
4766	1
4767	4
4768	2
4769	6
4770	4
4771	1
4772	0
4773	5
4774	3
4775	2
4776	5
4777	2
4778	3
4779	0
4780	0
4781	1
4782	1
4783	1
4784	2
4785	4
4786	3
4787	2
4788	1
4789	1
4790	0
4791	6
4792	4
4793	3
4794	5
4795	1
4796	6
4797	2
4798	6
4799	3
4800	3
4801	3
4802	4
4803	2
4804	2
4805	4
4806	2
4807	1
4808	2
4809	3
4810	2
4811	4
4812	3
4813	5
4814	5
4815	3
4816	2
4817	4
4818	1
4819	6
4820	6
4821	6
4822	2
4823	6
4824	10
4825	2
4826	6
4827	4
4828	4
4829	3
4830	1
4831	0
4832	3
4833	4
4834	6
4835	0
4836	4
4837	3
4838	4
4839	3
4840	1
4841	3
4842	5
4843	2
4844	3
4845	5
4846	3
4847	2
4848	7
4849	3
4850	1
4851	5
4852	3
4853	5
4854	2
4855	6
4856	0
4857	5
4858	1
4859	3
4860	1
4861	1
4862	5
4863	4
4864	5
4865	5
4866	2
4867	5
4868	6
4869	1
4870	2
4871	6
4872	1
4873	3
4874	4
4875	4
4876	3
4877	1
4878	3
4879	4
4880	7
4881	1
4882	7
4883	2
4884	2
4885	2
4886	6
4887	1
4888	5
4889	3
4890	1
4891	3
4892	6
4893	6
4894	1
4895	5
4896	1
4897	4
4898	0
4899	3
4900	2
4901	3
4902	5
4903	6
4904	4
4905	3
4906	2
4907	0
4908	0
4909	4
4910	6
4911	1
4912	3
4913	5
4914	5
4915	4
4916	4
4917	5
4918	1
4919	1
4920	1
4921	3
4922	3
4923	1
4924	2
4925	4
4926	4
4927	2
4928	4
4929	2
4930	2
4931	4
4932	3
4933	1
4934	4
4935	2
4936	0
4937	2
4938	1
4939	2
4940	5
4941	1
4942	5
4943	4
4944	3
4945	2
4946	4
4947	2
4948	6
4949	5
4950	4
4951	3
4952	4
4953	4
4954	1
4955	1
4956	2
4957	3
4958	5
4959	4
4960	1
4961	0
4962	2
4963	1
4964	4
4965	6
4966	2
4967	2
4968	4
4969	3
4970	2
4971	3
4972	2
4973	5
4974	3
4975	4
4976	4
4977	2
4978	2
4979	3
4980	2
4981	2
4982	3
4983	3
4984	1
4985	1
4986	3
4987	6
4988	2
4989	3
4990	1
4991	2
4992	3
4993	1
4994	2
4995	3
4996	8
4997	4
4998	8
4999	1
5000	3
5001	6
5002	4
5003	4
5004	3
5005	8
5006	1
5007	2
5008	4
5009	2
5010	3
5011	4
5012	3
5013	3
5014	3
5015	1
5016	2
5017	0
5018	3
5019	2
5020	3
5021	2
5022	1
5023	3
5024	0
5025	1
5026	0
5027	5
5028	5
5029	4
5030	1
5031	2
5032	1
5033	2
5034	1
5035	2
5036	2
5037	6
5038	0
5039	1
5040	2
5041	3
5042	2
5043	3
5044	3
5045	2
5046	1
5047	4
5048	2
5049	2
5050	3
5051	4
5052	1
5053	4
5054	3
5055	1
5056	2
5057	3
5058	0
5059	3
5060	3
5061	3
5062	1
5063	2
5064	1
5065	4
5066	2
5067	3
5068	3
5069	2
5070	2
5071	4
5072	6
5073	2
5074	2
5075	4
5076	2
5077	3
5078	2
5079	4
5080	3
5081	2
5082	2
5083	4
5084	0
5085	1
5086	2
5087	2
5088	2
5089	2
5090	2
5091	8
5092	2
5093	3
5094	1
5095	2
5096	2
5097	5
5098	3
5099	2
5100	1
5101	3
5102	3
5103	2
5104	5
5105	3
5106	3
5107	4
5108	4
5109	4
5110	1
5111	6
5112	4
5113	5
5114	3
5115	1
5116	4
5117	0
5118	6
5119	1
5120	3
5121	2
5122	1
5123	2
5124	2
5125	2
5126	2
5127	5
5128	0
5129	2
5130	7
5131	7
5132	5
5133	2
5134	3
5135	2
5136	3
5137	1
5138	1
5139	2
5140	4
5141	2
5142	5
5143	2
5144	6
5145	2
5146	5
5147	4
5148	4
5149	3
5150	5
5151	5
5152	1
5153	2
5154	1
5155	1
5156	2
5157	4
5158	2
5159	2
5160	3
5161	4
5162	5
5163	3
5164	0
5165	1
5166	6
5167	5
5168	2
5169	5
5170	3
5171	4
5172	3
5173	2
5174	5
5175	6
5176	2
5177	1
5178	4
5179	1
5180	2
5181	8
5182	1
5183	2
5184	2
5185	4
5186	2
5187	3
5188	3
5189	3
5190	5
5191	5
5192	5
5193	5
5194	3
5195	2
5196	3
5197	2
5198	6
5199	2
5200	1
5201	2
5202	3
5203	1
5204	5
5205	4
5206	0
5207	3
5208	2
5209	1
5210	2
5211	4
5212	4
5213	3
5214	5
5215	2
5216	2
5217	4
5218	4
5219	2
5220	2
5221	6
5222	3
5223	4
5224	3
5225	4
5226	3
5227	7
5228	2
5229	4
5230	4
5231	2
5232	5
5233	10
5234	2
5235	6
5236	2
5237	2
5238	3
5239	2
5240	2
5241	2
5242	1
5243	3
5244	2
5245	2
5246	3
5247	3
5248	3
5249	2
5250	1
5251	3
5252	4
5253	6
5254	3
5255	3
5256	2
5257	3
5258	4
5259	4
5260	4
5261	4
5262	2
5263	0
5264	3
5265	3
5266	5
5267	0
5268	0
5269	4
5270	3
5271	1
5272	1
5273	1
5274	5
5275	0
5276	4
5277	5
5278	2
5279	6
5280	3
5281	2
5282	5
5283	4
5284	4
5285	2
5286	2
5287	5
5288	2
5289	4
5290	2
5291	3
5292	0
5293	4
5294	4
5295	4
5296	3
5297	1
5298	2
5299	7
5300	3
5301	2
5302	1
5303	6
5304	5
5305	8
5306	2
5307	2
5308	5
5309	3
5310	2
5311	3
5312	4
5313	4
5314	2
5315	0
5316	1
5317	2
5318	3
5319	4
5320	4
5321	4
5322	0
5323	0
5324	2
5325	3
5326	6
5327	3
5328	1
5329	2
5330	5
5331	4
5332	2
5333	3
5334	5
5335	3
5336	0
5337	1
5338	3
5339	1
5340	3
5341	0
5342	4
5343	5
5344	5
5345	2
5346	1
5347	3
5348	7
5349	3
5350	3
5351	7
5352	3
5353	2
5354	3
5355	3
5356	2
5357	2
5358	2
5359	4
5360	1
5361	1
5362	2
5363	1
5364	9
5365	5
5366	2
5367	4
5368	2
5369	3
5370	3
5371	2
5372	2
5373	3
5374	3
5375	7
5376	1
5377	2
5378	3
5379	4
5380	3
5381	1
5382	4
5383	3
5384	3
5385	3
5386	1
5387	3
5388	7
5389	2
5390	0
5391	3
5392	1
5393	5
5394	3
5395	1
5396	2
5397	4
5398	2
5399	2
5400	5
5401	4
5402	4
5403	2
5404	2
5405	3
5406	5
5407	4
5408	2
5409	4
5410	1
5411	1
5412	2
5413	2
5414	5
5415	4
5416	1
5417	1
5418	4
5419	5
5420	2
5421	1
5422	3
5423	4
5424	1
5425	3
5426	4
5427	3
5428	2
5429	4
5430	4
5431	1
5432	4
5433	3
5434	1
5435	6
5436	1
5437	2
5438	1
5439	5
5440	1
5441	2
5442	1
5443	1
5444	5
5445	3
5446	3
5447	2
5448	4
5449	2
5450	1
5451	0
5452	4
5453	2
5454	3
5455	2
5456	2
5457	2
5458	2
5459	4
5460	2
5461	0
5462	3
5463	1
5464	5
5465	4
5466	4
5467	0
5468	4
5469	5
5470	3
5471	2
5472	3
5473	0
5474	0
5475	4
5476	4
5477	0
5478	0
5479	5
5480	3
5481	3
5482	2
5483	2
5484	3
5485	3
5486	6
5487	1
5488	1
5489	1
5490	5
5491	3
5492	2
5493	1
5494	1
5495	1
5496	5
5497	2
5498	2
5499	3
5500	3
5501	3
5502	4
5503	2
5504	2
5505	3
5506	6
5507	1
5508	4
5509	3
5510	3
5511	4
5512	1
5513	2
5514	2
5515	2
5516	1
5517	0
5518	2
5519	5
5520	2
5521	1
5522	0
5523	3
5524	3
5525	5
5526	4
5527	1
5528	4
5529	3
5530	3
5531	2
5532	3
5533	0
5534	1
5535	2
5536	1
5537	4
5538	4
5539	3
5540	2
5541	2
5542	0
5543	2
5544	1
5545	3
5546	2
5547	0
5548	1
5549	2
5550	4
5551	2
5552	1
5553	3
5554	2
5555	2
5556	6
5557	3
5558	1
5559	2
5560	1
5561	1
5562	2
5563	4
5564	3
5565	2
5566	2
5567	2
5568	3
5569	0
5570	4
5571	3
5572	4
5573	5
5574	5
5575	0
5576	1
5577	3
5578	6
5579	3
5580	3
5581	2
5582	0
5583	2
5584	3
5585	7
5586	3
5587	2
5588	2
5589	4
5590	3
5591	4
5592	2
5593	3
5594	4
5595	2
5596	4
5597	2
5598	1
5599	3
5600	2
5601	3
5602	4
5603	5
5604	2
5605	3
5606	3
5607	4
5608	1
5609	1
5610	2
5611	2
5612	2
5613	1
5614	5
5615	1
5616	0
5617	3
5618	4
5619	6
5620	0
5621	0
5622	1
5623	2
5624	5
5625	3
5626	4
5627	0
5628	5
5629	3
5630	5
5631	1
5632	6
5633	3
5634	1
5635	4
5636	5
5637	3
5638	4
5639	4
5640	2
5641	6
5642	2
5643	3
5644	4
5645	2
5646	1
5647	0
5648	1
5649	3
5650	3
5651	2
5652	2
5653	2
5654	2
5655	1
5656	1
5657	2
5658	0
5659	4
5660	3
5661	4
5662	3
5663	5
5664	0
5665	2
5666	3
5667	4
5668	4
5669	7
5670	2
5671	1
5672	3
5673	3
5674	5
5675	2
5676	3
5677	0
5678	1
5679	3
5680	2
5681	3
5682	3
5683	1
5684	0
5685	2
5686	3
5687	2
5688	3
5689	0
5690	2
5691	2
5692	1
5693	4
5694	5
5695	2
5696	3
5697	1
5698	5
5699	2
5700	3
5701	5
5702	3
5703	2
5704	0
5705	6
5706	1
5707	3
5708	1
5709	5
5710	3
5711	1
5712	6
5713	0
5714	2
5715	3
5716	5
5717	3
5718	3
5719	2
5720	5
5721	4
5722	3
5723	3
5724	3
5725	2
5726	1
5727	6
5728	2
5729	3
5730	2
5731	1
5732	4
5733	1
5734	2
5735	6
5736	1
5737	3
5738	6
5739	4
5740	5
5741	3
5742	1
5743	3
5744	2
5745	3
5746	5
5747	2
5748	3
5749	3
5750	2
5751	1
5752	3
5753	1
5754	2
5755	4
5756	1
5757	1
5758	3
5759	5
5760	1
5761	0
5762	5
5763	2
5764	5
5765	3
5766	4
5767	4
5768	3
5769	2
5770	2
5771	2
5772	4
5773	3
5774	4
5775	8
5776	5
5777	3
5778	2
5779	4
5780	6
5781	1
5782	6
5783	2
5784	4
5785	2
5786	1
5787	1
5788	4
5789	3
5790	4
5791	0
5792	4
5793	3
5794	3
5795	1
5796	3
5797	4
5798	1
5799	2
5800	6
5801	2
5802	2
5803	2
5804	3
5805	3
5806	2
5807	0
5808	2
5809	2
5810	1
5811	3
5812	1
5813	6
5814	2
5815	3
5816	2
5817	6
5818	5
5819	2
5820	3
5821	2
5822	3
5823	4
5824	2
5825	1
5826	2
5827	9
5828	3
5829	1
5830	3
5831	2
5832	3
5833	2
5834	3
5835	5
5836	3
5837	3
5838	5
5839	4
5840	3
5841	4
5842	3
5843	4
5844	2
5845	4
5846	5
5847	5
5848	2
5849	2
5850	1
5851	1
5852	1
5853	4
5854	2
5855	4
5856	4
5857	2
5858	2
5859	1
5860	4
5861	0
5862	2
5863	1
5864	3
5865	2
5866	9
5867	1
5868	3
5869	3
5870	3
5871	6
5872	5
5873	4
5874	3
5875	2
5876	6
5877	1
5878	8
5879	3
5880	4
5881	3
5882	4
5883	5
5884	4
5885	2
5886	1
5887	4
5888	4
5889	4
5890	4
5891	2
5892	1
5893	3
5894	4
5895	5
5896	2
5897	7
5898	4
5899	2
5900	0
5901	2
5902	3
5903	5
5904	2
5905	2
5906	3
5907	1
5908	6
5909	3
5910	1
5911	2
5912	9
5913	3
5914	2
5915	4
5916	4
5917	4
5918	3
5919	5
5920	2
5921	5
5922	2
5923	2
5924	2
5925	4
5926	4
5927	5
5928	6
5929	1
5930	7
5931	4
5932	5
5933	6
5934	5
5935	4
5936	4
5937	5
5938	1
5939	6
5940	3
5941	2
5942	7
5943	6
5944	7
5945	5
5946	2
5947	2
5948	2
5949	4
5950	5
5951	3
5952	2
5953	2
5954	5
5955	3
5956	3
5957	4
5958	4
5959	3
5960	7
5961	7
5962	3
5963	5
5964	2
5965	3
5966	2
5967	8
5968	5
5969	1
5970	3
5971	4
5972	3
5973	6
5974	4
5975	6
5976	4
5977	4
5978	4
5979	2
5980	0
5981	4
5982	5
5983	6
5984	4
5985	6
5986	4
5987	4
5988	3
5989	4
5990	4
5991	4
5992	4
5993	3
5994	1
5995	4
5996	3
5997	3
5998	3
5999	3
6000	3
6001	3
6002	4
6003	3
6004	3
6005	3
6006	2
6007	2
6008	4
6009	3
6010	4
6011	3
6012	2
6013	0
6014	3
6015	0
6016	5
6017	1
6018	3
6019	0
6020	0
6021	0
6022	2
6023	1
6024	3
6025	1
6026	3
6027	0
6028	0
6029	1
6030	2
6031	5
6032	2
6033	3
6034	1
6035	1
6036	4
6037	1
6038	2
6039	1
6040	2
6041	3
6042	0
6043	1
6044	1
6045	1
6046	1
6047	0
6048	1
6049	4
6050	0
6051	1
6052	0
6053	3
6054	2
6055	2
6056	4
6057	3
6058	2
6059	1
6060	1
6061	1
6062	2
6063	2
6064	2
6065	0
6066	5
6067	2
6068	2
6069	6
6070	2
6071	2
6072	2
6073	1
6074	3
6075	2
6076	1
6077	3
6078	4
6079	2
6080	3
6081	1
6082	1
6083	1
6084	1
6085	1
6086	1
6087	3
6088	1
6089	2
6090	2
6091	2
6092	3
6093	2
6094	1
6095	0
6096	0
6097	0
6098	2
6099	2
6100	2
6101	2
6102	1
6103	3
6104	4
6105	3
6106	1
6107	2
6108	2
6109	1
6110	2
6111	0
6112	4
6113	1
6114	2
6115	3
6116	2
6117	3
6118	1
6119	2
6120	4
6121	2
6122	1
6123	0
6124	1
6125	2
6126	1
6127	1
6128	0
6129	1
6130	2
6131	1
6132	0
6133	0
6134	2
6135	0
6136	3
6137	1
6138	1
6139	2
6140	2
6141	0
6142	2
6143	3
6144	2
6145	1
6146	1
6147	1
6148	5
6149	1
6150	1
6151	1
6152	1
6153	1
6154	0
6155	0
6156	3
6157	1
6158	2
6159	1
6160	2
6161	3
6162	3
6163	0
6164	0
6165	0
6166	2
6167	1
6168	1
6169	1
6170	1
6171	2
6172	2
6173	1
6174	1
6175	2
6176	3
6177	1
6178	2
6179	1
6180	0
6181	0
6182	4
6183	0
6184	2
6185	1
6186	0
6187	0
6188	0
6189	1
6190	1
6191	0
6192	1
6193	0
6194	2
6195	0
6196	2
6197	3
6198	2
6199	0
6200	1
6201	1
6202	1
6203	2
6204	2
6205	1
6206	1
6207	0
6208	1
6209	0
6210	0
6211	0
6212	0
6213	1
6214	0
6215	1
6216	2
6217	1
6218	3
6219	1
6220	0
6221	3
6222	0
6223	2
6224	3
6225	0
6226	1
6227	2
6228	0
6229	3
6230	2
6231	1
6232	0
6233	0
6234	0
6235	0
6236	1
6237	0
6238	1
6239	1
6240	0
6241	1
6242	0
6243	0
6244	1
6245	2
6246	0
6247	0
6248	1
6249	1
6250	0
6251	0
6252	2
6253	0
6254	0
6255	0
6256	0
6257	0
6258	1
6259	0
6260	1
6261	1
6262	0
6263	1
6264	2
6265	0
6266	0
6267	0
6268	0
6269	0
6270	0
6271	1
6272	0
6273	0
6274	0
6275	2
6276	0
6277	0
6278	0
6279	1
6280	1
6281	0
6282	0
6283	0
6284	1
6285	1
6286	2
6287	0
6288	1
6289	0
6290	0
6291	0
6292	0
6293	1
6294	0
6295	0
6296	1
6297	1
6298	0
6299	1
6300	1
6301	0
6302	0
6303	0
6304	0
6305	1
6306	0
6307	1
6308	1
6309	1
6310	0
6311	0
6312	0
6313	0
6314	0
6315	0
6316	0
6317	0
6318	0
6319	0
6320	1
6321	1
6322	0
6323	1
6324	0
6325	0
6326	0
6327	0
6328	0
6329	1
6330	0
6331	0
6332	0
6333	0
6334	0
6335	0
6336	0
6337	0
6338	0
6339	1
6340	2
6341	0
6342	0
6343	0
6344	2
6345	0
6346	1
6347	1
6348	1
6349	1
6350	0
6351	1
6352	2
6353	0
6354	4
6355	0
6356	1
6357	0
6358	0
6359	1
6360	0
6361	0
6362	1
6363	1
6364	0
6365	1
6366	0
6367	1
6368	0
6369	2
6370	1
6371	0
6372	0
6373	0
6374	1
6375	1
6376	1
6377	0
6378	0
6379	0
6380	0
6381	1
6382	0
6383	0
6384	1
6385	0
6386	0
6387	0
6388	0
6389	0
6390	0
6391	0
6392	0
6393	0
6394	0
6395	0
6396	1
6397	1
6398	1
6399	1
6400	0
6401	0
6402	1
6403	0
6404	1
6405	1
6406	1
6407	0
6408	1
6409	0
6410	0
6411	0
6412	1
6413	0
6414	3
6415	0
6416	2
6417	2
6418	0
6419	1
6420	1
6421	0
6422	1
6423	1
6424	0
6425	0
6426	1
6427	0
6428	2
6429	0
6430	1
6431	0
6432	0
6433	1
6434	1
6435	2
6436	1
6437	0
6438	0
6439	1
6440	1
6441	1
6442	0
6443	0
6444	0
6445	0
6446	0
6447	1
6448	0
6449	0
6450	1
6451	1
6452	0
6453	1
6454	0
6455	0
6456	0
6457	1
6458	1
6459	0
6460	0
6461	1
6462	0
6463	0
6464	0
6465	1
6466	0
6467	0
6468	0
6469	1
6470	0
6471	0
6472	1
6473	0
6474	0
6475	0
6476	0
6477	0
6478	0
6479	0
6480	0
6481	0
6482	0
6483	0
6484	0
6485	0
6486	0
6487	0
6488	1
6489	0
6490	0
6491	1
6492	0
6493	1
6494	0
6495	0
6496	0
6497	1
6498	0
6499	0
6500	1
6501	1
6502	0
6503	0
6504	1
6505	0
6506	1
6507	0
6508	0
6509	0
6510	0
6511	0
6512	1
6513	0
6514	0
6515	1
6516	0
6517	0
6518	0
6519	0
6520	0
6521	0
6522	0
6523	1
6524	1
6525	0
6526	0
6527	1
6528	1
6529	0
6530	0
6531	0
6532	2
6533	0
6534	0
6535	0
6536	0
6537	1
6538	0
6539	0
6540	0
6541	0
6542	0
6543	0
6544	0
6545	0
6546	2
6547	1
6548	0
6549	1
6550	0
6551	1
6552	1
6553	0
6554	9
6555	19
6556	29
6557	40
6558	58
6559	98
6560	78
6561	100
6562	75
6563	44
6564	42
6565	17
6566	17
6567	2
6568	0
6569	1
6570	0
6571	0
6572	1
6573	0
6574	0
6575	0
6576	0
6577	0
6578	0
6579	1
6580	0
6581	0
6582	0
6583	0
6584	0
6585	0
6586	0
6587	0
6588	1
6589	0
6590	0
6591	0
6592	0
6593	0
6594	0
6595	0
6596	0
6597	1
6598	0
6599	0
6600	0
6601	0
6602	0
6603	0
6604	0
6605	0
6606	0
6607	0
6608	0
6609	0
6610	0
6611	0
6612	0
6613	0
6614	0
6615	0
6616	0
6617	0
6618	0
6619	0
6620	0
6621	0
6622	0
6623	0
6624	0
6625	0
6626	0
6627	0
6628	0
6629	0
6630	0
6631	0
6632	0
6633	0
6634	0
6635	0
6636	0
6637	1
6638	0
6639	0
6640	0
6641	0
6642	0
6643	0
6644	0
6645	0
6646	0
6647	0
6648	0
6649	0
6650	0
6651	0
6652	0
6653	0
6654	0
6655	0
6656	0
6657	0
6658	0
6659	0
6660	0
6661	0
6662	0
6663	0
6664	0
6665	0
6666	1
6667	0
6668	0
6669	0
6670	0
6671	0
6672	0
6673	0
6674	0
6675	0
6676	0
6677	0
6678	0
6679	0
6680	0
6681	0
6682	0
6683	0
6684	0
6685	0
6686	0
6687	0
6688	0
6689	0
6690	0
6691	0
6692	0
6693	0
6694	0
6695	0
6696	0
6697	0
6698	0
6699	0
6700	0
6701	0
6702	0
6703	0
6704	0
6705	0
6706	0
6707	0
6708	0
6709	0
6710	0
6711	0
6712	0
6713	0
6714	0
6715	0
6716	0
6717	0
6718	0
6719	0
6720	0
6721	0
6722	0
6723	0
6724	0
6725	1
6726	0
6727	0
6728	1
6729	0
6730	0
6731	1
6732	0
6733	0
6734	0
6735	0
6736	0
6737	0
6738	0
6739	0
6740	0
6741	0
6742	0
6743	0
6744	0
6745	0
6746	0
6747	0
6748	0
6749	0
6750	0
6751	0
6752	0
6753	0
6754	0
6755	0
6756	0
6757	0
6758	1
6759	0
6760	0
6761	0
6762	0
6763	0
6764	0
6765	0
6766	0
6767	0
6768	0
6769	0
6770	0
6771	0
6772	0
6773	0
6774	0
6775	0
6776	0
6777	0
6778	0
6779	0
6780	0
6781	0
6782	1
6783	0
6784	0
6785	0
6786	0
6787	0
6788	0
6789	0
6790	0
6791	0
6792	0
6793	0
6794	0
6795	0
6796	0
6797	0
6798	0
6799	0
6800	0
6801	0
6802	0
6803	0
6804	0
6805	0
6806	0
6807	0
6808	0
6809	0
6810	0
6811	0
6812	0
6813	0
6814	0
6815	0
6816	0
6817	0
6818	0
6819	1
6820	0
6821	0
6822	0
6823	0
6824	1
6825	0
6826	0
6827	0
6828	0
6829	0
6830	0
6831	0
6832	0
6833	0
6834	0
6835	0
6836	0
6837	0
6838	0
6839	3
6840	1
6841	1
6842	0
6843	4
6844	0
6845	1
6846	0
6847	0
6848	0
6849	0
6850	0
6851	0
6852	0
6853	0
6854	0
6855	0
6856	0
6857	1
6858	0
6859	0
6860	0
6861	0
6862	0
6863	0
6864	0
6865	0
6866	0
6867	0
6868	0
6869	0
6870	0
6871	0
6872	0
6873	0
6874	0
6875	0
6876	0
6877	0
6878	0
6879	0
6880	0
6881	0
6882	0
6883	0
6884	0
6885	1
6886	0
6887	0
6888	0
6889	0
6890	0
6891	0
6892	0
6893	0
6894	0
6895	0
6896	0
6897	0
6898	0
6899	0
6900	0
6901	0
6902	0
6903	0
6904	0
6905	0
6906	0
6907	0
6908	0
6909	0
6910	0
6911	0
6912	0
6913	0
6914	0
6915	0
6916	1
6917	0
6918	0
6919	0
6920	0
6921	0
6922	0
6923	0
6924	0
6925	0
6926	0
6927	0
6928	0
6929	0
6930	0
6931	0
6932	0
6933	0
6934	1
6935	0
6936	0
6937	0
6938	0
6939	0
6940	0
6941	0
6942	1
6943	0
6944	0
6945	0
6946	0
6947	0
6948	0
6949	1
6950	0
6951	0
6952	0
6953	0
6954	0
6955	0
6956	0
6957	0
6958	0
6959	0
6960	0
6961	0
6962	0
6963	0
6964	0
6965	1
6966	0
6967	1
6968	0
6969	0
6970	0
6971	0
6972	0
6973	1
6974	0
6975	1
6976	0
6977	0
6978	0
6979	0
6980	0
6981	0
6982	0
6983	0
6984	0
6985	0
6986	0
6987	0
6988	0
6989	0
6990	0
6991	0
6992	0
6993	0
6994	0
6995	0
6996	0
6997	0
6998	0
6999	0
7000	0
7001	0
7002	0
7003	0
7004	0
7005	0
7006	0
7007	0
7008	0
7009	0
7010	0
7011	0
7012	0
7013	0
7014	0
7015	0
7016	0
7017	1
7018	0
7019	0
7020	0
7021	0
7022	0
7023	0
7024	0
7025	0
7026	0
7027	0
7028	0
7029	0
7030	0
7031	0
7032	0
7033	0
7034	0
7035	0
7036	0
7037	0
7038	0
7039	0
7040	0
7041	0
7042	1
7043	0
7044	0
7045	0
7046	0
7047	0
7048	0
7049	0
7050	0
7051	0
7052	0
7053	0
7054	0
7055	0
7056	0
7057	0
7058	0
7059	0
7060	0
7061	0
7062	0
7063	0
7064	0
7065	0
7066	0
7067	0
7068	0
7069	0
7070	0
7071	0
7072	0
7073	0
7074	0
7075	0
7076	0
7077	0
7078	0
7079	0
7080	0
7081	0
7082	0
7083	0
7084	0
7085	0
7086	0
7087	0
7088	0
7089	0
7090	0
7091	0
7092	0
7093	0
7094	0
7095	0
7096	0
7097	0
7098	0
7099	0
7100	0
7101	0
7102	0
7103	0
7104	0
7105	0
7106	0
7107	0
7108	0
7109	0
7110	0
7111	0
7112	0
7113	0
7114	0
7115	0
7116	0
7117	0
7118	0
7119	0
7120	0
7121	0
7122	0
7123	0
7124	0
7125	0
7126	0
7127	0
7128	0
7129	0
7130	0
7131	0
7132	0
7133	0
7134	0
7135	0
7136	0
7137	0
7138	0
7139	0
7140	0
7141	0
7142	0
7143	0
7144	0
7145	0
7146	0
7147	0
7148	0
7149	0
7150	0
7151	0
7152	0
7153	0
7154	0
7155	0
7156	0
7157	0
7158	0
7159	0
7160	0
7161	0
7162	0
7163	0
7164	0
7165	0
7166	0
7167	0
7168	0
7169	0
7170	0
7171	0
7172	0
7173	0
7174	0
7175	0
7176	0
7177	0
7178	0
7179	0
7180	0
7181	0
7182	0
7183	0
7184	0
7185	0
7186	0
7187	0
7188	0
7189	0
7190	0
7191	0
7192	0
7193	0
7194	0
7195	0
7196	0
7197	0
7198	1
7199	0
7200	0
7201	0
7202	0
7203	0
7204	0
7205	0
7206	0
7207	0
7208	0
7209	0
7210	0
7211	0
7212	0
7213	0
7214	0
7215	0
7216	0
7217	0
7218	0
7219	0
7220	0
7221	0
7222	0
7223	0
7224	0
7225	0
7226	0
7227	0
7228	0
7229	0
7230	0
7231	0
7232	0
7233	0
7234	0
7235	0
7236	0
7237	0
7238	0
7239	0
7240	0
7241	0
7242	0
7243	0
7244	0
7245	0
7246	0
7247	0
7248	0
7249	0
7250	0
7251	0
7252	0
7253	0
7254	0
7255	0
7256	0
7257	0
7258	0
7259	0
7260	0
7261	0
7262	0
7263	0
7264	0
7265	0
7266	0
7267	0
7268	0
7269	0
7270	0
7271	0
7272	0
7273	0
7274	0
7275	0
7276	0
7277	0
7278	0
7279	0
7280	0
7281	0
7282	0
7283	0
7284	0
7285	0
7286	0
7287	0
7288	0
7289	0
7290	0
7291	0
7292	0
7293	0
7294	0
7295	0
7296	0
7297	0
7298	0
7299	0
7300	0
7301	0
7302	0
7303	0
7304	0
7305	0
7306	0
7307	0
7308	0
7309	0
7310	0
7311	0
7312	0
7313	0
7314	0
7315	0
7316	0
7317	0
7318	0
7319	0
7320	0
7321	0
7322	0
7323	0
7324	0
7325	0
7326	0
7327	0
7328	0
7329	0
7330	1
7331	0
7332	0
7333	0
7334	0
7335	0
7336	0
7337	0
7338	0
7339	0
7340	0
7341	0
7342	0
7343	0
7344	0
7345	0
7346	0
7347	0
7348	0
7349	0
7350	0
7351	0
7352	0
7353	0
7354	0
7355	0
7356	0
7357	0
7358	0
7359	0
7360	0
7361	0
7362	0
7363	0
7364	0
7365	0
7366	0
7367	0
7368	0
7369	0
7370	0
7371	0
7372	0
7373	0
7374	0
7375	0
7376	0
7377	0
7378	0
7379	0
7380	0
7381	0
7382	0
7383	0
7384	0
7385	0
7386	0
7387	0
7388	0
7389	0
7390	0
7391	0
7392	0
7393	0
7394	0
7395	0
7396	0
7397	0
7398	0
7399	0
7400	0
7401	0
7402	0
7403	0
7404	0
7405	0
7406	0
7407	0
7408	0
7409	0
7410	0
7411	0
7412	0
7413	0
7414	0
7415	0
7416	0
7417	0
7418	0
7419	0
7420	0
7421	0
7422	1
7423	0
7424	0
7425	0
7426	0
7427	0
7428	0
7429	0
7430	0
7431	0
7432	0
7433	0
7434	0
7435	0
7436	0
7437	0
7438	0
7439	0
7440	0
7441	0
7442	0
7443	0
7444	0
7445	0
7446	0
7447	0
7448	0
7449	0
7450	0
7451	0
7452	0
7453	0
7454	0
7455	0
7456	0
7457	0
7458	0
7459	0
7460	0
7461	0
7462	0
7463	0
7464	1
7465	0
7466	0
7467	0
7468	0
7469	0
7470	1
7471	0
7472	0
7473	0
7474	0
7475	0
7476	1
7477	0
7478	0
7479	0
7480	0
7481	0
7482	0
7483	0
7484	0
7485	0
7486	0
7487	0
7488	0
7489	0
7490	0
7491	0
7492	0
7493	0
7494	0
7495	0
7496	0
7497	0
7498	0
7499	0
7500	0
7501	1
7502	1
7503	0
7504	0
7505	0
7506	0
7507	0
7508	0
7509	0
7510	0
7511	0
7512	0
7513	0
7514	0
7515	0
7516	0
7517	0
7518	0
7519	0
7520	0
7521	0
7522	0
7523	0
7524	0
7525	0
7526	0
7527	0
7528	1
7529	0
7530	0
7531	0
7532	0
7533	0
7534	0
7535	0
7536	0
7537	0
7538	0
7539	0
7540	0
7541	0
7542	0
7543	0
7544	0
7545	0
7546	0
7547	0
7548	0
7549	0
7550	0
7551	0
7552	0
7553	0
7554	0
7555	0
7556	0
7557	0
7558	0
7559	0
7560	0
7561	0
7562	0
7563	0
7564	0
7565	0
7566	0
7567	0
7568	0
7569	0
7570	0
7571	0
7572	0
7573	0
7574	1
7575	0
7576	0
7577	0
7578	0
7579	1
7580	0
7581	0
7582	0
7583	0
7584	0
7585	0
7586	0
7587	0
7588	0
7589	0
7590	0
7591	0
7592	0
7593	0
7594	0
7595	0
7596	0
7597	0
7598	0
7599	0
7600	0
7601	0
7602	0
7603	0
7604	1
7605	0
7606	0
7607	0
7608	0
7609	0
7610	0
7611	0
7612	0
7613	0
7614	0
7615	0
7616	0
7617	0
7618	0
7619	0
7620	0
7621	0
7622	0
7623	0
7624	0
7625	0
7626	0
7627	0
7628	0
7629	0
7630	0
7631	0
7632	0
7633	0
7634	0
7635	0
7636	0
7637	0
7638	0
7639	0
7640	0
7641	0
7642	0
7643	0
7644	0
7645	0
7646	0
7647	0
7648	0
7649	0
7650	0
7651	0
7652	0
7653	0
7654	0
7655	0
7656	0
7657	0
7658	0
7659	0
7660	0
7661	0
7662	0
7663	0
7664	0
7665	0
7666	0
7667	0
7668	0
7669	0
7670	0
7671	1
7672	0
7673	0
7674	0
7675	0
7676	0
7677	0
7678	0
7679	0
7680	0
7681	0
7682	0
7683	0
7684	0
7685	0
7686	0
7687	0
7688	0
7689	0
7690	0
7691	0
7692	0
7693	0
7694	0
7695	0
7696	0
7697	0
7698	0
7699	0
7700	0
7701	0
7702	0
7703	0
7704	0
7705	0
7706	0
7707	0
7708	0
7709	0
7710	0
7711	0
7712	0
7713	0
7714	0
7715	0
7716	0
7717	0
7718	0
7719	0
7720	0
7721	0
7722	0
7723	0
7724	0
7725	0
7726	0
7727	0
7728	0
7729	0
7730	0
7731	0
7732	0
7733	0
7734	0
7735	0
7736	0
7737	1
7738	0
7739	0
7740	0
7741	0
7742	0
7743	0
7744	0
7745	0
7746	0
7747	0
7748	0
7749	0
7750	0
7751	0
7752	0
7753	0
7754	0
7755	0
7756	0
7757	0
7758	1
7759	0
7760	0
7761	0
7762	0
7763	0
7764	0
7765	0
7766	0
7767	0
7768	0
7769	0
7770	0
7771	0
7772	0
7773	0
7774	0
7775	0
7776	0
7777	0
7778	0
7779	0
7780	0
7781	0
7782	0
7783	0
7784	0
7785	0
7786	0
7787	0
7788	0
7789	0
7790	0
7791	0
7792	0
7793	0
7794	0
7795	0
7796	0
7797	0
7798	0
7799	0
7800	0
7801	0
7802	0
7803	0
7804	0
7805	0
7806	0
7807	0
7808	0
7809	0
7810	0
7811	0
7812	0
7813	0
7814	0
7815	0
7816	0
7817	0
7818	0
7819	0
7820	0
7821	0
7822	0
7823	0
7824	0
7825	0
7826	0
7827	0
7828	0
7829	0
7830	0
7831	0
7832	0
7833	0
7834	0
7835	0
7836	0
7837	0
7838	0
7839	1
7840	0
7841	0
7842	0
7843	0
7844	0
7845	0
7846	0
7847	0
7848	0
7849	0
7850	0
7851	0
7852	0
7853	0
7854	0
7855	0
7856	0
7857	0
7858	0
7859	0
7860	0
7861	0
7862	0
7863	0
7864	0
7865	0
7866	0
7867	0
7868	0
7869	0
7870	0
7871	0
7872	0
7873	0
7874	0
7875	0
7876	0
7877	0
7878	0
7879	0
7880	0
7881	0
7882	0
7883	0
7884	0
7885	0
7886	0
7887	0
7888	0
7889	0
7890	0
7891	0
7892	1
7893	0
7894	0
7895	0
7896	0
7897	0
7898	0
7899	0
7900	0
7901	0
7902	0
7903	0
7904	0
7905	0
7906	0
7907	0
7908	0
7909	0
7910	0
7911	0
7912	0
7913	0
7914	0
7915	0
7916	0
7917	0
7918	0
7919	0
7920	0
7921	0
7922	0
7923	0
7924	0
7925	0
7926	0
7927	0
7928	0
7929	0
7930	0
7931	0
7932	0
7933	0
7934	0
7935	0
7936	0
7937	0
7938	0
7939	0
7940	0
7941	0
7942	0
7943	0
7944	0
7945	0
7946	0
7947	0
7948	0
7949	0
7950	0
7951	0
7952	0
7953	0
7954	0
7955	0
7956	0
7957	0
7958	0
7959	0
7960	0
7961	0
7962	0
7963	0
7964	0
7965	0
7966	0
7967	0
7968	0
7969	0
7970	0
7971	0
7972	0
7973	0
7974	0
7975	0
7976	0
7977	0
7978	0
7979	0
7980	0
7981	0
7982	0
7983	0
7984	0
7985	0
7986	0
7987	0
7988	0
7989	0
7990	0
7991	0
7992	0
7993	0
7994	0
7995	0
7996	0
7997	0
7998	0
7999	0
8000	0
8001	0
8002	0
8003	0
8004	0
8005	0
8006	0
8007	0
8008	0
8009	0
8010	0
8011	0
8012	0
8013	0
8014	0
8015	0
8016	0
8017	0
8018	0
8019	0
8020	0
8021	0
8022	0
8023	0
8024	0
8025	0
8026	0
8027	0
8028	0
8029	0
8030	0
8031	0
8032	0
8033	1
8034	0
8035	0
8036	0
8037	0
8038	0
8039	0
8040	0
8041	0
8042	0
8043	1
8044	0
8045	0
8046	0
8047	0
8048	0
8049	0
8050	0
8051	0
8052	0
8053	0
8054	0
8055	0
8056	0
8057	0
8058	0
8059	0
8060	0
8061	0
8062	0
8063	0
8064	0
8065	0
8066	0
8067	0
8068	0
8069	0
8070	0
8071	0
8072	0
8073	0
8074	0
8075	0
8076	0
8077	0
8078	0
8079	0
8080	0
8081	0
8082	0
8083	0
8084	0
8085	0
8086	0
8087	0
8088	0
8089	0
8090	0
8091	0
8092	0
8093	0
8094	0
8095	0
8096	0
8097	0
8098	0
8099	0
8100	0
8101	0
8102	0
8103	0
8104	0
8105	0
8106	0
8107	0
8108	0
8109	0
8110	0
8111	0
8112	0
8113	0
8114	0
8115	0
8116	0
8117	0
8118	0
8119	0
8120	0
8121	0
8122	0
8123	0
8124	0
8125	0
8126	0
8127	0
8128	0
8129	0
8130	0
8131	0
8132	0
8133	0
8134	0
8135	0
8136	0
8137	0
8138	0
8139	0
8140	0
8141	0
8142	0
8143	0
8144	0
8145	0
8146	0
8147	0
8148	0
8149	0
8150	0
8151	0
8152	0
8153	0
8154	0
8155	0
8156	0
8157	0
8158	0
8159	0
8160	0
8161	0
8162	0
8163	0
8164	0
8165	0
8166	0
8167	0
8168	0
8169	0
8170	0
8171	0
8172	0
8173	0
8174	0
8175	0
8176	0
8177	0
8178	0
8179	0
8180	0
8181	0
8182	0
8183	0
8184	0
8185	0
8186	0
8187	0
8188	0
8189	0
8190	0
8191	0
