0	0
1	0
2	0
3	0
4	0
5	0
6	0
7	0
8	0
9	0
10	0
11	0
12	0
13	0
14	0
15	0
16	0
17	0
18	0
19	0
20	0
21	0
22	0
23	0
24	0
25	0
26	0
27	0
28	0
29	0
30	0
31	0
32	0
33	0
34	0
35	0
36	0
37	0
38	0
39	0
40	0
41	0
42	0
43	0
44	0
45	0
46	0
47	0
48	0
49	0
50	0
51	0
52	0
53	0
54	0
55	0
56	0
57	0
58	0
59	0
60	0
61	0
62	0
63	0
64	0
65	0
66	0
67	0
68	0
69	0
70	0
71	0
72	0
73	0
74	0
75	0
76	0
77	0
78	0
79	0
80	0
81	0
82	0
83	0
84	0
85	0
86	0
87	0
88	0
89	0
90	0
91	0
92	0
93	0
94	0
95	0
96	0
97	0
98	0
99	0
100	0
101	0
102	0
103	0
104	0
105	0
106	0
107	0
108	0
109	0
110	0
111	0
112	0
113	0
114	0
115	0
116	0
117	0
118	74
119	303
120	497
121	641
122	602
123	619
124	626
125	639
126	614
127	634
128	679
129	580
130	614
131	580
132	575
133	578
134	608
135	569
136	558
137	550
138	576
139	575
140	537
141	578
142	587
143	523
144	537
145	541
146	583
147	552
148	525
149	579
150	548
151	568
152	563
153	526
154	538
155	501
156	555
157	545
158	567
159	546
160	560
161	534
162	530
163	598
164	574
165	541
166	493
167	527
168	536
169	521
170	511
171	534
172	540
173	508
174	505
175	490
176	473
177	494
178	475
179	504
180	505
181	478
182	499
183	472
184	476
185	517
186	552
187	527
188	476
189	492
190	511
191	544
192	506
193	496
194	471
195	459
196	506
197	519
198	488
199	464
200	469
201	523
202	462
203	491
204	500
205	505
206	498
207	456
208	482
209	491
210	449
211	486
212	448
213	513
214	493
215	532
216	488
217	498
218	471
219	488
220	509
221	476
222	475
223	495
224	413
225	456
226	460
227	459
228	482
229	446
230	463
231	475
232	456
233	445
234	468
235	489
236	484
237	463
238	474
239	472
240	470
241	487
242	474
243	515
244	500
245	493
246	506
247	450
248	449
249	502
250	485
251	469
252	475
253	474
254	493
255	472
256	452
257	478
258	456
259	481
260	511
261	491
262	489
263	448
264	490
265	493
266	440
267	456
268	446
269	453
270	440
271	493
272	470
273	494
274	487
275	491
276	505
277	499
278	475
279	455
280	491
281	454
282	491
283	495
284	454
285	466
286	461
287	452
288	485
289	497
290	484
291	453
292	528
293	469
294	508
295	487
296	512
297	465
298	486
299	470
300	471
301	434
302	496
303	466
304	464
305	465
306	499
307	513
308	473
309	471
310	470
311	494
312	455
313	485
314	479
315	473
316	432
317	471
318	457
319	445
320	458
321	508
322	410
323	439
324	471
325	481
326	467
327	475
328	444
329	434
330	444
331	495
332	451
333	463
334	471
335	450
336	455
337	423
338	428
339	488
340	463
341	483
342	465
343	480
344	465
345	461
346	478
347	480
348	464
349	476
350	474
351	442
352	486
353	487
354	482
355	507
356	500
357	501
358	462
359	502
360	450
361	463
362	477
363	451
364	496
365	475
366	491
367	484
368	476
369	491
370	522
371	496
372	506
373	485
374	491
375	502
376	495
377	498
378	471
379	521
380	503
381	637
382	757
383	1009
384	1031
385	970
386	771
387	503
388	526
389	480
390	498
391	481
392	537
393	482
394	482
395	458
396	480
397	469
398	504
399	479
400	488
401	499
402	512
403	492
404	487
405	478
406	467
407	446
408	507
409	508
410	477
411	497
412	480
413	502
414	474
415	473
416	483
417	509
418	537
419	479
420	525
421	570
422	569
423	569
424	508
425	467
426	500
427	470
428	470
429	489
430	473
431	472
432	484
433	483
434	477
435	484
436	488
437	469
438	488
439	453
440	498
441	455
442	507
443	498
444	497
445	480
446	505
447	463
448	490
449	487
450	466
451	488
452	471
453	496
454	502
455	522
456	510
457	496
458	474
459	543
460	441
461	483
462	476
463	481
464	490
465	455
466	470
467	466
468	454
469	496
470	460
471	503
472	498
473	479
474	483
475	500
476	449
477	499
478	483
479	512
480	457
481	532
482	493
483	479
484	552
485	505
486	490
487	511
488	495
489	480
490	536
491	464
492	512
493	507
494	509
495	493
496	463
497	462
498	499
499	506
500	471
501	441
502	499
503	528
504	509
505	466
506	519
507	551
508	524
509	505
510	552
511	493
512	513
513	540
514	531
515	534
516	568
517	518
518	550
519	551
520	525
521	548
522	555
523	559
524	525
525	543
526	560
527	511
528	564
529	555
530	549
531	557
532	568
533	553
534	526
535	553
536	509
537	517
538	552
539	564
540	570
541	540
542	556
543	561
544	630
545	592
546	627
547	588
548	588
549	629
550	585
551	590
552	643
553	630
554	578
555	656
556	613
557	631
558	643
559	626
560	591
561	637
562	666
563	622
564	626
565	606
566	613
567	673
568	603
569	620
570	639
571	627
572	656
573	591
574	625
575	610
576	602
577	625
578	625
579	601
580	579
581	655
582	598
583	605
584	586
585	596
586	589
587	605
588	586
589	569
590	585
591	601
592	556
593	565
594	565
595	549
596	609
597	582
598	564
599	564
600	554
601	526
602	543
603	591
604	524
605	540
606	597
607	578
608	598
609	551
610	564
611	613
612	560
613	555
614	613
615	584
616	561
617	586
618	596
619	610
620	612
621	586
622	669
623	614
624	634
625	643
626	609
627	590
628	638
629	613
630	644
631	671
632	612
633	587
634	610
635	650
636	626
637	616
638	571
639	590
640	604
641	609
642	615
643	610
644	597
645	593
646	598
647	568
648	612
649	590
650	573
651	610
652	581
653	593
654	548
655	560
656	606
657	549
658	609
659	585
660	576
661	581
662	600
663	532
664	560
665	547
666	542
667	529
668	521
669	523
670	565
671	544
672	529
673	546
674	526
675	578
676	589
677	523
678	534
679	533
680	526
681	516
682	548
683	512
684	508
685	546
686	557
687	530
688	516
689	544
690	494
691	559
692	551
693	529
694	494
695	519
696	552
697	502
698	509
699	544
700	559
701	529
702	530
703	514
704	536
705	478
706	553
707	502
708	521
709	491
710	521
711	529
712	547
713	505
714	498
715	500
716	489
717	504
718	480
719	477
720	516
721	475
722	501
723	506
724	503
725	461
726	527
727	485
728	523
729	465
730	496
731	517
732	478
733	504
734	464
735	497
736	495
737	469
738	505
739	525
740	465
741	506
742	492
743	491
744	488
745	468
746	493
747	495
748	503
749	492
750	518
751	471
752	508
753	480
754	482
755	512
756	461
757	500
758	467
759	473
760	478
761	525
762	509
763	476
764	492
765	470
766	475
767	486
768	481
769	487
770	490
771	478
772	477
773	510
774	450
775	424
776	449
777	470
778	495
779	441
780	438
781	469
782	498
783	490
784	453
785	460
786	485
787	486
788	512
789	464
790	458
791	466
792	470
793	472
794	474
795	480
796	483
797	487
798	496
799	517
800	482
801	480
802	483
803	438
804	478
805	463
806	487
807	490
808	469
809	463
810	436
811	506
812	466
813	481
814	479
815	483
816	456
817	451
818	486
819	442
820	436
821	501
822	445
823	503
824	443
825	439
826	468
827	436
828	477
829	480
830	495
831	456
832	457
833	469
834	430
835	462
836	444
837	527
838	456
839	466
840	488
841	470
842	436
843	484
844	472
845	434
846	449
847	455
848	475
849	450
850	496
851	475
852	468
853	453
854	459
855	476
856	481
857	473
858	495
859	496
860	452
861	436
862	466
863	493
864	476
865	422
866	480
867	452
868	479
869	470
870	485
871	493
872	490
873	503
874	470
875	437
876	496
877	420
878	502
879	454
880	455
881	470
882	457
883	466
884	494
885	454
886	500
887	471
888	474
889	506
890	473
891	469
892	426
893	425
894	512
895	478
896	501
897	436
898	433
899	450
900	450
901	499
902	526
903	498
904	475
905	422
906	464
907	488
908	453
909	483
910	513
911	469
912	499
913	503
914	443
915	461
916	431
917	473
918	484
919	508
920	501
921	467
922	457
923	429
924	467
925	478
926	490
927	494
928	473
929	468
930	474
931	482
932	497
933	472
934	489
935	446
936	492
937	465
938	448
939	462
940	490
941	456
942	448
943	435
944	476
945	432
946	431
947	456
948	470
949	393
950	451
951	442
952	461
953	414
954	438
955	446
956	421
957	478
958	410
959	421
960	418
961	446
962	457
963	433
964	445
965	450
966	433
967	439
968	433
969	423
970	453
971	469
972	448
973	431
974	381
975	425
976	414
977	458
978	434
979	393
980	441
981	420
982	414
983	438
984	420
985	420
986	387
987	428
988	408
989	409
990	470
991	438
992	403
993	382
994	412
995	433
996	440
997	406
998	431
999	403
1000	398
1001	403
1002	398
1003	379
1004	418
1005	401
1006	440
1007	445
1008	407
1009	414
1010	404
1011	425
1012	411
1013	426
1014	408
1015	447
1016	380
1017	375
1018	418
1019	394
1020	432
1021	429
1022	407
1023	447
1024	441
1025	408
1026	417
1027	424
1028	430
1029	414
1030	395
1031	421
1032	359
1033	386
1034	434
1035	430
1036	432
1037	455
1038	386
1039	415
1040	430
1041	356
1042	391
1043	414
1044	406
1045	389
1046	402
1047	433
1048	381
1049	401
1050	418
1051	436
1052	388
1053	375
1054	369
1055	386
1056	401
1057	375
1058	412
1059	395
1060	392
1061	393
1062	376
1063	379
1064	407
1065	413
1066	418
1067	369
1068	401
1069	408
1070	427
1071	405
1072	428
1073	442
1074	385
1075	417
1076	425
1077	391
1078	408
1079	412
1080	407
1081	408
1082	360
1083	417
1084	403
1085	408
1086	410
1087	427
1088	429
1089	415
1090	370
1091	411
1092	410
1093	438
1094	374
1095	393
1096	405
1097	426
1098	356
1099	396
1100	394
1101	386
1102	402
1103	427
1104	425
1105	407
1106	396
1107	433
1108	379
1109	413
1110	419
1111	386
1112	421
1113	366
1114	432
1115	365
1116	413
1117	456
1118	425
1119	381
1120	444
1121	446
1122	402
1123	405
1124	416
1125	386
1126	426
1127	380
1128	416
1129	442
1130	409
1131	396
1132	421
1133	430
1134	382
1135	409
1136	392
1137	410
1138	404
1139	422
1140	419
1141	412
1142	423
1143	405
1144	409
1145	400
1146	407
1147	420
1148	416
1149	409
1150	397
1151	421
1152	394
1153	406
1154	407
1155	413
1156	422
1157	400
1158	416
1159	442
1160	428
1161	409
1162	448
1163	439
1164	456
1165	375
1166	464
1167	417
1168	426
1169	407
1170	449
1171	427
1172	460
1173	394
1174	421
1175	441
1176	439
1177	417
1178	439
1179	430
1180	431
1181	433
1182	463
1183	461
1184	419
1185	437
1186	435
1187	504
1188	462
1189	466
1190	416
1191	442
1192	476
1193	398
1194	460
1195	445
1196	482
1197	439
1198	466
1199	472
1200	474
1201	467
1202	487
1203	453
1204	443
1205	434
1206	459
1207	426
1208	424
1209	416
1210	454
1211	442
1212	429
1213	478
1214	417
1215	478
1216	438
1217	468
1218	500
1219	441
1220	430
1221	464
1222	432
1223	465
1224	470
1225	453
1226	450
1227	480
1228	458
1229	471
1230	459
1231	464
1232	448
1233	520
1234	531
1235	432
1236	446
1237	464
1238	451
1239	483
1240	501
1241	508
1242	465
1243	453
1244	491
1245	501
1246	473
1247	501
1248	486
1249	495
1250	490
1251	501
1252	516
1253	526
1254	486
1255	452
1256	452
1257	498
1258	534
1259	505
1260	487
1261	514
1262	525
1263	509
1264	519
1265	468
1266	488
1267	498
1268	473
1269	481
1270	522
1271	515
1272	455
1273	496
1274	518
1275	492
1276	484
1277	474
1278	497
1279	474
1280	462
1281	476
1282	517
1283	495
1284	500
1285	465
1286	494
1287	523
1288	487
1289	509
1290	511
1291	475
1292	479
1293	485
1294	492
1295	480
1296	466
1297	445
1298	432
1299	478
1300	496
1301	457
1302	423
1303	465
1304	408
1305	436
1306	387
1307	387
1308	400
1309	368
1310	404
1311	366
1312	362
1313	357
1314	396
1315	377
1316	385
1317	381
1318	376
1319	376
1320	360
1321	348
1322	350
1323	334
1324	357
1325	342
1326	353
1327	348
1328	361
1329	349
1330	346
1331	340
1332	312
1333	346
1334	361
1335	354
1336	340
1337	318
1338	351
1339	348
1340	347
1341	315
1342	310
1343	315
1344	321
1345	325
1346	333
1347	324
1348	322
1349	303
1350	314
1351	293
1352	318
1353	346
1354	354
1355	330
1356	296
1357	324
1358	302
1359	345
1360	311
1361	314
1362	289
1363	320
1364	283
1365	321
1366	338
1367	315
1368	307
1369	319
1370	290
1371	304
1372	302
1373	275
1374	273
1375	327
1376	305
1377	297
1378	292
1379	288
1380	340
1381	369
1382	419
1383	523
1384	701
1385	992
1386	1375
1387	1883
1388	2703
1389	3323
1390	3893
1391	4027
1392	3794
1393	3124
1394	2555
1395	1811
1396	1216
1397	837
1398	572
1399	402
1400	336
1401	318
1402	274
1403	242
1404	296
1405	232
1406	270
1407	273
1408	257
1409	274
1410	258
1411	233
1412	232
1413	273
1414	288
1415	253
1416	255
1417	250
1418	281
1419	255
1420	250
1421	252
1422	245
1423	244
1424	239
1425	246
1426	232
1427	209
1428	234
1429	253
1430	242
1431	240
1432	244
1433	227
1434	269
1435	234
1436	246
1437	263
1438	254
1439	236
1440	229
1441	236
1442	210
1443	241
1444	223
1445	228
1446	226
1447	210
1448	202
1449	243
1450	202
1451	241
1452	223
1453	217
1454	226
1455	196
1456	217
1457	225
1458	221
1459	226
1460	214
1461	198
1462	222
1463	228
1464	222
1465	214
1466	210
1467	213
1468	233
1469	242
1470	218
1471	223
1472	222
1473	231
1474	211
1475	227
1476	216
1477	209
1478	211
1479	214
1480	202
1481	201
1482	211
1483	215
1484	193
1485	183
1486	190
1487	163
1488	218
1489	229
1490	226
1491	195
1492	204
1493	221
1494	202
1495	208
1496	227
1497	237
1498	208
1499	196
1500	197
1501	178
1502	192
1503	233
1504	196
1505	192
1506	196
1507	196
1508	200
1509	206
1510	181
1511	195
1512	216
1513	186
1514	169
1515	185
1516	188
1517	201
1518	193
1519	200
1520	176
1521	182
1522	202
1523	211
1524	206
1525	204
1526	166
1527	209
1528	197
1529	179
1530	194
1531	202
1532	185
1533	195
1534	197
1535	193
1536	208
1537	189
1538	174
1539	188
1540	214
1541	200
1542	203
1543	212
1544	191
1545	213
1546	176
1547	187
1548	177
1549	204
1550	204
1551	193
1552	184
1553	180
1554	196
1555	178
1556	169
1557	199
1558	188
1559	209
1560	172
1561	209
1562	188
1563	183
1564	198
1565	172
1566	172
1567	170
1568	175
1569	178
1570	161
1571	173
1572	206
1573	196
1574	194
1575	208
1576	198
1577	174
1578	175
1579	170
1580	170
1581	173
1582	196
1583	169
1584	177
1585	176
1586	190
1587	174
1588	166
1589	192
1590	194
1591	172
1592	181
1593	179
1594	190
1595	183
1596	200
1597	170
1598	171
1599	184
1600	176
1601	181
1602	191
1603	204
1604	190
1605	162
1606	175
1607	190
1608	192
1609	195
1610	203
1611	163
1612	172
1613	170
1614	178
1615	171
1616	193
1617	208
1618	195
1619	165
1620	171
1621	185
1622	182
1623	192
1624	162
1625	177
1626	162
1627	189
1628	181
1629	193
1630	162
1631	137
1632	185
1633	161
1634	172
1635	180
1636	187
1637	203
1638	207
1639	189
1640	186
1641	185
1642	187
1643	159
1644	166
1645	175
1646	184
1647	177
1648	172
1649	157
1650	182
1651	168
1652	160
1653	193
1654	174
1655	195
1656	176
1657	179
1658	190
1659	214
1660	184
1661	172
1662	200
1663	186
1664	169
1665	178
1666	181
1667	183
1668	198
1669	172
1670	190
1671	157
1672	172
1673	168
1674	201
1675	187
1676	183
1677	184
1678	181
1679	202
1680	189
1681	186
1682	207
1683	181
1684	180
1685	191
1686	175
1687	212
1688	154
1689	178
1690	188
1691	200
1692	192
1693	167
1694	186
1695	158
1696	183
1697	189
1698	150
1699	174
1700	170
1701	186
1702	195
1703	163
1704	154
1705	164
1706	163
1707	168
1708	176
1709	202
1710	159
1711	185
1712	156
1713	176
1714	191
1715	182
1716	161
1717	184
1718	175
1719	165
1720	179
1721	172
1722	188
1723	155
1724	163
1725	182
1726	183
1727	157
1728	161
1729	196
1730	184
1731	177
1732	165
1733	161
1734	167
1735	170
1736	167
1737	164
1738	184
1739	165
1740	194
1741	165
1742	166
1743	189
1744	183
1745	181
1746	182
1747	172
1748	186
1749	175
1750	176
1751	181
1752	198
1753	187
1754	166
1755	162
1756	186
1757	181
1758	162
1759	168
1760	184
1761	179
1762	157
1763	203
1764	192
1765	206
1766	190
1767	209
1768	182
1769	198
1770	174
1771	172
1772	240
1773	215
1774	339
1775	519
1776	1111
1777	2683
1778	6355
1779	12755
1780	19791
1781	23767
1782	22209
1783	16050
1784	8269
1785	3097
1786	885
1787	311
1788	189
1789	164
1790	175
1791	154
1792	164
1793	142
1794	151
1795	168
1796	139
1797	148
1798	148
1799	130
1800	145
1801	136
1802	159
1803	133
1804	119
1805	152
1806	153
1807	156
1808	123
1809	126
1810	163
1811	152
1812	150
1813	152
1814	147
1815	154
1816	135
1817	138
1818	157
1819	136
1820	137
1821	140
1822	119
1823	129
1824	141
1825	126
1826	131
1827	155
1828	138
1829	152
1830	144
1831	169
1832	139
1833	145
1834	130
1835	156
1836	160
1837	131
1838	147
1839	134
1840	130
1841	146
1842	156
1843	151
1844	140
1845	138
1846	148
1847	135
1848	140
1849	148
1850	145
1851	144
1852	142
1853	121
1854	149
1855	141
1856	159
1857	145
1858	134
1859	145
1860	130
1861	134
1862	163
1863	147
1864	130
1865	149
1866	125
1867	128
1868	131
1869	132
1870	154
1871	156
1872	130
1873	156
1874	160
1875	140
1876	153
1877	138
1878	136
1879	158
1880	126
1881	131
1882	153
1883	136
1884	148
1885	141
1886	134
1887	133
1888	161
1889	159
1890	161
1891	156
1892	135
1893	137
1894	153
1895	123
1896	159
1897	127
1898	138
1899	144
1900	139
1901	170
1902	143
1903	151
1904	141
1905	148
1906	148
1907	135
1908	141
1909	159
1910	149
1911	148
1912	147
1913	143
1914	147
1915	133
1916	127
1917	147
1918	126
1919	147
1920	141
1921	134
1922	143
1923	121
1924	130
1925	128
1926	141
1927	138
1928	175
1929	125
1930	153
1931	136
1932	141
1933	133
1934	136
1935	153
1936	147
1937	157
1938	137
1939	147
1940	157
1941	157
1942	149
1943	131
1944	127
1945	167
1946	143
1947	141
1948	131
1949	128
1950	134
1951	129
1952	156
1953	162
1954	139
1955	148
1956	142
1957	146
1958	150
1959	165
1960	147
1961	154
1962	134
1963	150
1964	135
1965	126
1966	165
1967	142
1968	150
1969	136
1970	170
1971	139
1972	127
1973	147
1974	141
1975	165
1976	158
1977	136
1978	156
1979	144
1980	153
1981	148
1982	133
1983	132
1984	146
1985	144
1986	130
1987	158
1988	150
1989	176
1990	173
1991	139
1992	151
1993	139
1994	129
1995	164
1996	128
1997	154
1998	149
1999	149
2000	135
2001	155
2002	132
2003	144
2004	143
2005	123
2006	156
2007	171
2008	135
2009	147
2010	158
2011	165
2012	145
2013	164
2014	115
2015	138
2016	148
2017	134
2018	127
2019	142
2020	148
2021	139
2022	148
2023	150
2024	132
2025	143
2026	177
2027	148
2028	153
2029	144
2030	151
2031	153
2032	135
2033	137
2034	149
2035	156
2036	143
2037	161
2038	176
2039	154
2040	151
2041	176
2042	163
2043	150
2044	138
2045	164
2046	167
2047	151
2048	156
2049	174
2050	148
2051	144
2052	163
2053	152
2054	151
2055	156
2056	162
2057	146
2058	151
2059	135
2060	152
2061	148
2062	164
2063	155
2064	163
2065	153
2066	161
2067	165
2068	152
2069	146
2070	138
2071	142
2072	143
2073	159
2074	165
2075	153
2076	143
2077	160
2078	148
2079	163
2080	143
2081	167
2082	179
2083	129
2084	169
2085	152
2086	147
2087	173
2088	158
2089	175
2090	168
2091	152
2092	180
2093	183
2094	138
2095	163
2096	151
2097	156
2098	160
2099	177
2100	147
2101	149
2102	158
2103	148
2104	164
2105	139
2106	168
2107	134
2108	142
2109	164
2110	165
2111	169
2112	133
2113	156
2114	151
2115	154
2116	147
2117	166
2118	147
2119	154
2120	152
2121	168
2122	133
2123	130
2124	182
2125	136
2126	152
2127	158
2128	156
2129	166
2130	149
2131	191
2132	153
2133	154
2134	176
2135	152
2136	180
2137	154
2138	181
2139	137
2140	184
2141	184
2142	174
2143	169
2144	162
2145	151
2146	168
2147	143
2148	144
2149	180
2150	167
2151	145
2152	168
2153	167
2154	162
2155	162
2156	168
2157	149
2158	151
2159	169
2160	177
2161	159
2162	164
2163	149
2164	162
2165	155
2166	170
2167	160
2168	172
2169	193
2170	163
2171	148
2172	149
2173	146
2174	146
2175	144
2176	183
2177	162
2178	179
2179	172
2180	159
2181	168
2182	153
2183	168
2184	159
2185	190
2186	169
2187	185
2188	148
2189	168
2190	155
2191	179
2192	170
2193	196
2194	180
2195	193
2196	207
2197	195
2198	192
2199	169
2200	161
2201	157
2202	153
2203	163
2204	155
2205	148
2206	158
2207	159
2208	153
2209	163
2210	162
2211	166
2212	161
2213	169
2214	187
2215	184
2216	159
2217	158
2218	194
2219	190
2220	165
2221	177
2222	161
2223	155
2224	163
2225	156
2226	171
2227	181
2228	199
2229	178
2230	187
2231	153
2232	180
2233	163
2234	182
2235	200
2236	155
2237	198
2238	183
2239	175
2240	174
2241	168
2242	156
2243	175
2244	194
2245	179
2246	150
2247	181
2248	196
2249	176
2250	169
2251	149
2252	167
2253	193
2254	195
2255	170
2256	172
2257	159
2258	147
2259	186
2260	147
2261	173
2262	182
2263	171
2264	181
2265	167
2266	169
2267	206
2268	174
2269	182
2270	186
2271	182
2272	187
2273	187
2274	193
2275	187
2276	179
2277	156
2278	178
2279	159
2280	160
2281	198
2282	202
2283	198
2284	208
2285	176
2286	198
2287	169
2288	180
2289	175
2290	185
2291	171
2292	179
2293	197
2294	169
2295	185
2296	170
2297	181
2298	186
2299	210
2300	173
2301	167
2302	182
2303	184
2304	198
2305	198
2306	184
2307	176
2308	218
2309	171
2310	199
2311	174
2312	185
2313	177
2314	187
2315	179
2316	175
2317	176
2318	182
2319	195
2320	227
2321	200
2322	197
2323	176
2324	209
2325	200
2326	181
2327	175
2328	224
2329	199
2330	185
2331	191
2332	186
2333	187
2334	196
2335	155
2336	174
2337	189
2338	204
2339	178
2340	203
2341	159
2342	203
2343	193
2344	170
2345	196
2346	195
2347	169
2348	200
2349	203
2350	226
2351	173
2352	195
2353	178
2354	190
2355	224
2356	186
2357	207
2358	198
2359	177
2360	185
2361	173
2362	215
2363	197
2364	195
2365	208
2366	204
2367	193
2368	162
2369	186
2370	194
2371	214
2372	186
2373	200
2374	203
2375	174
2376	204
2377	182
2378	209
2379	214
2380	211
2381	175
2382	211
2383	171
2384	207
2385	189
2386	210
2387	197
2388	216
2389	199
2390	196
2391	220
2392	220
2393	233
2394	220
2395	234
2396	223
2397	205
2398	209
2399	190
2400	193
2401	199
2402	219
2403	198
2404	206
2405	200
2406	195
2407	226
2408	210
2409	210
2410	221
2411	244
2412	180
2413	219
2414	189
2415	209
2416	204
2417	206
2418	219
2419	210
2420	203
2421	201
2422	250
2423	241
2424	219
2425	246
2426	225
2427	220
2428	232
2429	223
2430	230
2431	225
2432	210
2433	195
2434	201
2435	232
2436	209
2437	252
2438	249
2439	225
2440	249
2441	201
2442	213
2443	231
2444	227
2445	226
2446	228
2447	221
2448	232
2449	234
2450	248
2451	230
2452	216
2453	245
2454	249
2455	200
2456	212
2457	208
2458	254
2459	230
2460	245
2461	242
2462	236
2463	248
2464	248
2465	242
2466	216
2467	233
2468	251
2469	221
2470	222
2471	219
2472	230
2473	271
2474	260
2475	229
2476	236
2477	233
2478	245
2479	227
2480	239
2481	215
2482	272
2483	250
2484	204
2485	244
2486	252
2487	245
2488	256
2489	232
2490	225
2491	251
2492	262
2493	267
2494	257
2495	238
2496	222
2497	243
2498	267
2499	250
2500	231
2501	228
2502	239
2503	234
2504	245
2505	244
2506	230
2507	260
2508	254
2509	262
2510	235
2511	243
2512	270
2513	265
2514	260
2515	243
2516	236
2517	268
2518	253
2519	248
2520	270
2521	265
2522	253
2523	275
2524	285
2525	252
2526	247
2527	244
2528	241
2529	283
2530	254
2531	278
2532	252
2533	241
2534	263
2535	257
2536	267
2537	268
2538	285
2539	245
2540	239
2541	264
2542	282
2543	275
2544	267
2545	270
2546	258
2547	256
2548	277
2549	244
2550	285
2551	234
2552	248
2553	266
2554	233
2555	263
2556	241
2557	255
2558	239
2559	222
2560	280
2561	209
2562	261
2563	224
2564	217
2565	211
2566	233
2567	204
2568	222
2569	191
2570	207
2571	208
2572	189
2573	205
2574	203
2575	200
2576	220
2577	197
2578	192
2579	206
2580	196
2581	214
2582	220
2583	195
2584	194
2585	189
2586	207
2587	206
2588	208
2589	185
2590	189
2591	200
2592	202
2593	217
2594	210
2595	215
2596	217
2597	169
2598	205
2599	196
2600	186
2601	197
2602	200
2603	214
2604	186
2605	202
2606	183
2607	187
2608	183
2609	193
2610	180
2611	187
2612	192
2613	188
2614	187
2615	208
2616	195
2617	197
2618	169
2619	209
2620	169
2621	169
2622	181
2623	179
2624	185
2625	187
2626	204
2627	186
2628	172
2629	194
2630	176
2631	171
2632	171
2633	192
2634	215
2635	185
2636	162
2637	183
2638	191
2639	202
2640	169
2641	163
2642	184
2643	182
2644	185
2645	200
2646	192
2647	196
2648	186
2649	177
2650	202
2651	183
2652	182
2653	170
2654	179
2655	177
2656	185
2657	183
2658	182
2659	163
2660	162
2661	176
2662	227
2663	190
2664	182
2665	173
2666	183
2667	184
2668	148
2669	166
2670	169
2671	176
2672	191
2673	175
2674	179
2675	193
2676	198
2677	175
2678	212
2679	185
2680	182
2681	169
2682	187
2683	193
2684	169
2685	176
2686	192
2687	179
2688	171
2689	187
2690	162
2691	181
2692	186
2693	160
2694	169
2695	165
2696	190
2697	186
2698	179
2699	191
2700	185
2701	176
2702	186
2703	196
2704	168
2705	182
2706	197
2707	174
2708	172
2709	205
2710	182
2711	184
2712	161
2713	166
2714	193
2715	182
2716	189
2717	173
2718	164
2719	194
2720	177
2721	176
2722	177
2723	176
2724	203
2725	194
2726	167
2727	146
2728	196
2729	189
2730	170
2731	176
2732	172
2733	174
2734	178
2735	191
2736	178
2737	185
2738	170
2739	165
2740	179
2741	168
2742	188
2743	152
2744	183
2745	187
2746	173
2747	183
2748	180
2749	176
2750	187
2751	164
2752	176
2753	198
2754	154
2755	153
2756	163
2757	157
2758	182
2759	143
2760	167
2761	159
2762	156
2763	147
2764	166
2765	184
2766	170
2767	147
2768	182
2769	176
2770	169
2771	150
2772	160
2773	151
2774	171
2775	158
2776	175
2777	161
2778	202
2779	180
2780	174
2781	174
2782	172
2783	175
2784	159
2785	183
2786	177
2787	169
2788	175
2789	155
2790	177
2791	187
2792	174
2793	171
2794	167
2795	168
2796	190
2797	190
2798	158
2799	182
2800	166
2801	190
2802	191
2803	153
2804	177
2805	168
2806	176
2807	177
2808	167
2809	191
2810	157
2811	161
2812	181
2813	157
2814	162
2815	167
2816	172
2817	147
2818	194
2819	179
2820	168
2821	154
2822	169
2823	183
2824	176
2825	146
2826	161
2827	188
2828	149
2829	161
2830	168
2831	177
2832	157
2833	160
2834	163
2835	149
2836	158
2837	162
2838	158
2839	172
2840	133
2841	169
2842	153
2843	184
2844	169
2845	179
2846	157
2847	154
2848	158
2849	163
2850	162
2851	169
2852	176
2853	156
2854	170
2855	192
2856	176
2857	174
2858	162
2859	155
2860	172
2861	176
2862	185
2863	149
2864	178
2865	154
2866	169
2867	166
2868	169
2869	134
2870	161
2871	176
2872	136
2873	189
2874	172
2875	174
2876	162
2877	176
2878	177
2879	186
2880	152
2881	147
2882	153
2883	159
2884	191
2885	168
2886	172
2887	183
2888	179
2889	176
2890	169
2891	191
2892	179
2893	133
2894	174
2895	171
2896	158
2897	185
2898	173
2899	180
2900	145
2901	172
2902	172
2903	216
2904	169
2905	154
2906	181
2907	176
2908	177
2909	172
2910	174
2911	190
2912	178
2913	168
2914	178
2915	167
2916	193
2917	167
2918	189
2919	189
2920	190
2921	173
2922	165
2923	163
2924	169
2925	180
2926	179
2927	166
2928	159
2929	184
2930	167
2931	155
2932	184
2933	175
2934	187
2935	184
2936	170
2937	157
2938	177
2939	171
2940	184
2941	164
2942	182
2943	175
2944	180
2945	176
2946	165
2947	149
2948	185
2949	151
2950	175
2951	185
2952	182
2953	187
2954	187
2955	140
2956	159
2957	167
2958	153
2959	174
2960	164
2961	156
2962	158
2963	173
2964	151
2965	153
2966	146
2967	144
2968	128
2969	139
2970	151
2971	134
2972	119
2973	129
2974	131
2975	125
2976	125
2977	101
2978	137
2979	130
2980	118
2981	135
2982	110
2983	137
2984	134
2985	115
2986	109
2987	106
2988	111
2989	113
2990	104
2991	102
2992	111
2993	106
2994	129
2995	108
2996	116
2997	107
2998	125
2999	120
3000	109
3001	121
3002	102
3003	116
3004	90
3005	133
3006	108
3007	106
3008	96
3009	102
3010	102
3011	83
3012	103
3013	99
3014	119
3015	100
3016	94
3017	91
3018	115
3019	112
3020	92
3021	95
3022	111
3023	111
3024	104
3025	98
3026	98
3027	124
3028	103
3029	80
3030	99
3031	87
3032	132
3033	100
3034	90
3035	105
3036	86
3037	92
3038	105
3039	118
3040	82
3041	83
3042	79
3043	94
3044	88
3045	91
3046	81
3047	107
3048	93
3049	98
3050	77
3051	103
3052	89
3053	86
3054	83
3055	88
3056	91
3057	91
3058	100
3059	87
3060	103
3061	101
3062	95
3063	77
3064	80
3065	97
3066	85
3067	84
3068	94
3069	64
3070	102
3071	99
3072	92
3073	93
3074	76
3075	81
3076	73
3077	75
3078	87
3079	81
3080	78
3081	91
3082	97
3083	78
3084	87
3085	83
3086	77
3087	94
3088	70
3089	95
3090	108
3091	82
3092	80
3093	91
3094	83
3095	98
3096	105
3097	96
3098	109
3099	148
3100	237
3101	540
3102	1215
3103	2722
3104	4986
3105	7765
3106	10039
3107	10523
3108	9056
3109	6245
3110	3599
3111	1469
3112	534
3113	204
3114	112
3115	99
3116	74
3117	70
3118	70
3119	83
3120	65
3121	68
3122	60
3123	76
3124	73
3125	65
3126	60
3127	61
3128	68
3129	85
3130	57
3131	61
3132	62
3133	72
3134	76
3135	51
3136	72
3137	77
3138	66
3139	63
3140	54
3141	51
3142	54
3143	61
3144	61
3145	58
3146	42
3147	60
3148	52
3149	59
3150	47
3151	63
3152	46
3153	71
3154	52
3155	59
3156	49
3157	63
3158	57
3159	53
3160	57
3161	48
3162	60
3163	61
3164	57
3165	43
3166	59
3167	49
3168	48
3169	52
3170	53
3171	36
3172	57
3173	53
3174	53
3175	46
3176	52
3177	45
3178	51
3179	51
3180	39
3181	48
3182	50
3183	42
3184	39
3185	41
3186	33
3187	51
3188	34
3189	44
3190	36
3191	48
3192	42
3193	37
3194	49
3195	47
3196	35
3197	39
3198	30
3199	39
3200	42
3201	36
3202	44
3203	32
3204	41
3205	36
3206	41
3207	43
3208	28
3209	44
3210	32
3211	36
3212	33
3213	26
3214	39
3215	41
3216	34
3217	28
3218	36
3219	39
3220	34
3221	27
3222	37
3223	35
3224	39
3225	32
3226	32
3227	36
3228	36
3229	26
3230	29
3231	33
3232	29
3233	28
3234	32
3235	33
3236	34
3237	32
3238	28
3239	26
3240	38
3241	35
3242	26
3243	36
3244	35
3245	34
3246	25
3247	24
3248	34
3249	32
3250	34
3251	31
3252	43
3253	25
3254	25
3255	24
3256	29
3257	23
3258	30
3259	24
3260	33
3261	26
3262	23
3263	23
3264	31
3265	33
3266	21
3267	21
3268	39
3269	28
3270	27
3271	30
3272	25
3273	35
3274	25
3275	13
3276	23
3277	23
3278	34
3279	26
3280	26
3281	15
3282	24
3283	24
3284	23
3285	19
3286	31
3287	20
3288	35
3289	26
3290	22
3291	27
3292	29
3293	25
3294	23
3295	27
3296	20
3297	14
3298	18
3299	16
3300	15
3301	24
3302	15
3303	21
3304	22
3305	24
3306	20
3307	21
3308	20
3309	20
3310	27
3311	19
3312	21
3313	25
3314	19
3315	22
3316	20
3317	25
3318	14
3319	12
3320	22
3321	23
3322	20
3323	17
3324	23
3325	26
3326	15
3327	23
3328	22
3329	13
3330	22
3331	26
3332	20
3333	13
3334	18
3335	28
3336	25
3337	20
3338	14
3339	18
3340	24
3341	18
3342	22
3343	20
3344	24
3345	13
3346	11
3347	23
3348	16
3349	16
3350	15
3351	22
3352	20
3353	25
3354	19
3355	24
3356	17
3357	18
3358	19
3359	23
3360	20
3361	21
3362	34
3363	48
3364	125
3365	282
3366	463
3367	900
3368	1209
3369	1461
3370	1391
3371	1082
3372	712
3373	387
3374	144
3375	65
3376	24
3377	14
3378	22
3379	20
3380	19
3381	15
3382	14
3383	18
3384	19
3385	21
3386	22
3387	21
3388	22
3389	15
3390	18
3391	21
3392	23
3393	19
3394	15
3395	22
3396	22
3397	14
3398	17
3399	13
3400	9
3401	15
3402	15
3403	17
3404	13
3405	22
3406	17
3407	14
3408	20
3409	19
3410	20
3411	15
3412	21
3413	7
3414	19
3415	16
3416	23
3417	12
3418	17
3419	15
3420	12
3421	18
3422	17
3423	16
3424	16
3425	20
3426	17
3427	17
3428	14
3429	16
3430	18
3431	22
3432	19
3433	14
3434	20
3435	15
3436	11
3437	17
3438	11
3439	15
3440	15
3441	14
3442	22
3443	22
3444	23
3445	20
3446	22
3447	19
3448	15
3449	31
3450	14
3451	22
3452	18
3453	18
3454	14
3455	13
3456	11
3457	20
3458	14
3459	19
3460	16
3461	17
3462	18
3463	17
3464	15
3465	18
3466	12
3467	21
3468	13
3469	17
3470	14
3471	16
3472	15
3473	13
3474	20
3475	22
3476	19
3477	20
3478	14
3479	14
3480	12
3481	24
3482	18
3483	16
3484	21
3485	16
3486	18
3487	25
3488	22
3489	21
3490	20
3491	25
3492	20
3493	23
3494	14
3495	27
3496	21
3497	16
3498	20
3499	17
3500	28
3501	23
3502	15
3503	22
3504	22
3505	18
3506	22
3507	19
3508	19
3509	25
3510	43
3511	43
3512	95
3513	232
3514	584
3515	1317
3516	2825
3517	4877
3518	7187
3519	8992
3520	9202
3521	7587
3522	5066
3523	2846
3524	1285
3525	464
3526	133
3527	42
3528	25
3529	20
3530	11
3531	17
3532	13
3533	14
3534	12
3535	17
3536	13
3537	11
3538	13
3539	15
3540	7
3541	6
3542	7
3543	12
3544	4
3545	11
3546	9
3547	10
3548	11
3549	8
3550	9
3551	6
3552	9
3553	7
3554	7
3555	5
3556	11
3557	8
3558	13
3559	7
3560	8
3561	11
3562	9
3563	10
3564	9
3565	8
3566	9
3567	14
3568	10
3569	8
3570	6
3571	9
3572	7
3573	12
3574	14
3575	4
3576	10
3577	9
3578	3
3579	9
3580	8
3581	11
3582	4
3583	13
3584	10
3585	3
3586	5
3587	6
3588	14
3589	7
3590	9
3591	5
3592	8
3593	8
3594	10
3595	2
3596	3
3597	10
3598	7
3599	12
3600	7
3601	9
3602	9
3603	7
3604	12
3605	7
3606	3
3607	4
3608	7
3609	6
3610	6
3611	9
3612	5
3613	7
3614	15
3615	7
3616	2
3617	6
3618	6
3619	7
3620	11
3621	7
3622	6
3623	4
3624	14
3625	8
3626	11
3627	8
3628	9
3629	4
3630	11
3631	5
3632	3
3633	6
3634	6
3635	5
3636	7
3637	9
3638	6
3639	7
3640	7
3641	12
3642	8
3643	6
3644	8
3645	8
3646	9
3647	6
3648	5
3649	7
3650	6
3651	4
3652	9
3653	8
3654	9
3655	4
3656	4
3657	15
3658	10
3659	4
3660	6
3661	9
3662	9
3663	5
3664	7
3665	5
3666	7
3667	11
3668	10
3669	12
3670	4
3671	3
3672	4
3673	2
3674	5
3675	9
3676	7
3677	7
3678	3
3679	7
3680	7
3681	6
3682	12
3683	7
3684	6
3685	3
3686	4
3687	4
3688	4
3689	9
3690	7
3691	4
3692	4
3693	10
3694	9
3695	4
3696	6
3697	4
3698	6
3699	3
3700	5
3701	6
3702	4
3703	10
3704	10
3705	3
3706	5
3707	3
3708	5
3709	8
3710	6
3711	9
3712	6
3713	5
3714	10
3715	8
3716	3
3717	6
3718	7
3719	5
3720	5
3721	4
3722	6
3723	9
3724	7
3725	3
3726	8
3727	6
3728	3
3729	12
3730	13
3731	7
3732	6
3733	5
3734	11
3735	6
3736	4
3737	7
3738	7
3739	9
3740	6
3741	4
3742	2
3743	5
3744	5
3745	7
3746	4
3747	5
3748	7
3749	9
3750	9
3751	5
3752	2
3753	11
3754	8
3755	4
3756	2
3757	8
3758	4
3759	7
3760	4
3761	2
3762	4
3763	8
3764	7
3765	7
3766	7
3767	6
3768	7
3769	4
3770	4
3771	3
3772	6
3773	3
3774	8
3775	5
3776	2
3777	6
3778	2
3779	4
3780	6
3781	4
3782	2
3783	11
3784	8
3785	6
3786	10
3787	5
3788	4
3789	6
3790	7
3791	7
3792	6
3793	1
3794	4
3795	2
3796	8
3797	4
3798	5
3799	3
3800	4
3801	5
3802	6
3803	7
3804	3
3805	6
3806	8
3807	5
3808	5
3809	3
3810	10
3811	6
3812	6
3813	4
3814	3
3815	6
3816	7
3817	8
3818	2
3819	4
3820	3
3821	4
3822	8
3823	6
3824	5
3825	6
3826	4
3827	11
3828	9
3829	9
3830	3
3831	5
3832	8
3833	8
3834	0
3835	8
3836	5
3837	5
3838	7
3839	3
3840	5
3841	5
3842	5
3843	5
3844	3
3845	7
3846	12
3847	7
3848	4
3849	2
3850	5
3851	4
3852	5
3853	8
3854	4
3855	4
3856	7
3857	3
3858	6
3859	6
3860	4
3861	5
3862	3
3863	6
3864	5
3865	8
3866	5
3867	8
3868	3
3869	7
3870	3
3871	8
3872	3
3873	5
3874	6
3875	7
3876	3
3877	6
3878	3
3879	5
3880	9
3881	9
3882	6
3883	5
3884	9
3885	4
3886	3
3887	9
3888	7
3889	5
3890	6
3891	7
3892	4
3893	5
3894	3
3895	5
3896	7
3897	1
3898	8
3899	3
3900	5
3901	4
3902	3
3903	5
3904	4
3905	5
3906	6
3907	9
3908	6
3909	5
3910	5
3911	6
3912	8
3913	6
3914	10
3915	7
3916	2
3917	9
3918	1
3919	4
3920	4
3921	2
3922	3
3923	6
3924	5
3925	2
3926	4
3927	4
3928	5
3929	8
3930	2
3931	0
3932	4
3933	5
3934	4
3935	5
3936	4
3937	2
3938	2
3939	1
3940	8
3941	4
3942	6
3943	4
3944	6
3945	5
3946	5
3947	3
3948	3
3949	5
3950	2
3951	6
3952	3
3953	4
3954	1
3955	3
3956	3
3957	6
3958	5
3959	8
3960	8
3961	3
3962	5
3963	7
3964	11
3965	5
3966	6
3967	3
3968	5
3969	3
3970	6
3971	8
3972	4
3973	1
3974	3
3975	6
3976	5
3977	3
3978	7
3979	10
3980	2
3981	5
3982	9
3983	5
3984	1
3985	5
3986	6
3987	4
3988	5
3989	3
3990	5
3991	4
3992	4
3993	3
3994	1
3995	6
3996	6
3997	8
3998	8
3999	4
4000	7
4001	4
4002	2
4003	11
4004	2
4005	3
4006	6
4007	2
4008	5
4009	4
4010	4
4011	8
4012	2
4013	6
4014	2
4015	5
4016	4
4017	9
4018	8
4019	3
4020	3
4021	4
4022	10
4023	6
4024	7
4025	3
4026	5
4027	4
4028	4
4029	4
4030	3
4031	3
4032	5
4033	3
4034	5
4035	4
4036	4
4037	7
4038	1
4039	3
4040	3
4041	7
4042	2
4043	4
4044	2
4045	4
4046	3
4047	6
4048	2
4049	3
4050	7
4051	5
4052	10
4053	6
4054	9
4055	5
4056	3
4057	8
4058	3
4059	8
4060	2
4061	8
4062	3
4063	2
4064	6
4065	6
4066	8
4067	6
4068	7
4069	5
4070	4
4071	4
4072	5
4073	7
4074	5
4075	6
4076	8
4077	5
4078	6
4079	5
4080	8
4081	4
4082	4
4083	2
4084	5
4085	11
4086	3
4087	3
4088	10
4089	10
4090	1
4091	2
4092	5
4093	7
4094	5
4095	8
4096	1
4097	5
4098	3
4099	4
4100	5
4101	6
4102	5
4103	3
4104	8
4105	2
4106	5
4107	5
4108	5
4109	4
4110	2
4111	5
4112	10
4113	5
4114	4
4115	7
4116	4
4117	5
4118	5
4119	2
4120	9
4121	1
4122	5
4123	3
4124	6
4125	4
4126	4
4127	4
4128	7
4129	4
4130	7
4131	6
4132	5
4133	4
4134	1
4135	4
4136	6
4137	6
4138	6
4139	7
4140	3
4141	2
4142	7
4143	5
4144	9
4145	1
4146	4
4147	7
4148	3
4149	4
4150	6
4151	7
4152	8
4153	3
4154	5
4155	5
4156	5
4157	7
4158	5
4159	7
4160	2
4161	11
4162	5
4163	6
4164	7
4165	3
4166	2
4167	6
4168	6
4169	5
4170	4
4171	2
4172	5
4173	2
4174	3
4175	6
4176	3
4177	4
4178	1
4179	4
4180	4
4181	4
4182	5
4183	3
4184	2
4185	5
4186	4
4187	7
4188	3
4189	3
4190	2
4191	3
4192	3
4193	5
4194	4
4195	1
4196	3
4197	3
4198	8
4199	3
4200	6
4201	7
4202	4
4203	5
4204	5
4205	2
4206	8
4207	7
4208	7
4209	1
4210	0
4211	3
4212	5
4213	6
4214	5
4215	5
4216	9
4217	5
4218	6
4219	5
4220	2
4221	5
4222	3
4223	4
4224	3
4225	5
4226	2
4227	4
4228	5
4229	5
4230	2
4231	7
4232	8
4233	3
4234	3
4235	2
4236	5
4237	4
4238	4
4239	3
4240	2
4241	5
4242	5
4243	6
4244	6
4245	4
4246	4
4247	4
4248	7
4249	6
4250	3
4251	8
4252	5
4253	1
4254	1
4255	5
4256	9
4257	5
4258	4
4259	4
4260	3
4261	3
4262	4
4263	4
4264	1
4265	8
4266	5
4267	4
4268	4
4269	11
4270	4
4271	5
4272	3
4273	1
4274	8
4275	3
4276	4
4277	3
4278	8
4279	2
4280	4
4281	6
4282	6
4283	3
4284	3
4285	5
4286	8
4287	6
4288	2
4289	4
4290	4
4291	4
4292	4
4293	1
4294	6
4295	3
4296	3
4297	3
4298	8
4299	4
4300	5
4301	1
4302	3
4303	2
4304	3
4305	8
4306	6
4307	5
4308	1
4309	2
4310	5
4311	4
4312	6
4313	2
4314	6
4315	2
4316	2
4317	3
4318	5
4319	2
4320	4
4321	4
4322	3
4323	6
4324	3
4325	4
4326	5
4327	8
4328	3
4329	2
4330	4
4331	2
4332	3
4333	4
4334	4
4335	3
4336	0
4337	6
4338	7
4339	4
4340	2
4341	3
4342	2
4343	8
4344	4
4345	6
4346	6
4347	3
4348	3
4349	1
4350	5
4351	2
4352	2
4353	2
4354	1
4355	2
4356	5
4357	1
4358	5
4359	6
4360	4
4361	6
4362	1
4363	5
4364	6
4365	12
4366	5
4367	3
4368	4
4369	3
4370	5
4371	2
4372	2
4373	8
4374	5
4375	4
4376	6
4377	2
4378	4
4379	7
4380	3
4381	2
4382	4
4383	1
4384	6
4385	7
4386	3
4387	5
4388	4
4389	7
4390	3
4391	2
4392	4
4393	4
4394	6
4395	5
4396	6
4397	2
4398	2
4399	4
4400	0
4401	5
4402	0
4403	7
4404	1
4405	3
4406	6
4407	3
4408	4
4409	5
4410	3
4411	4
4412	0
4413	3
4414	5
4415	5
4416	6
4417	2
4418	5
4419	6
4420	0
4421	2
4422	4
4423	9
4424	9
4425	3
4426	5
4427	8
4428	5
4429	1
4430	1
4431	5
4432	7
4433	6
4434	4
4435	2
4436	5
4437	4
4438	2
4439	4
4440	3
4441	2
4442	2
4443	7
4444	2
4445	3
4446	2
4447	3
4448	1
4449	5
4450	4
4451	3
4452	1
4453	5
4454	2
4455	3
4456	4
4457	4
4458	2
4459	2
4460	5
4461	4
4462	1
4463	7
4464	3
4465	4
4466	4
4467	6
4468	4
4469	3
4470	4
4471	2
4472	5
4473	4
4474	3
4475	3
4476	4
4477	3
4478	4
4479	5
4480	5
4481	3
4482	3
4483	4
4484	3
4485	4
4486	3
4487	6
4488	5
4489	4
4490	3
4491	6
4492	3
4493	4
4494	1
4495	3
4496	3
4497	2
4498	1
4499	3
4500	3
4501	2
4502	3
4503	6
4504	5
4505	2
4506	1
4507	5
4508	3
4509	4
4510	3
4511	1
4512	3
4513	5
4514	5
4515	8
4516	1
4517	5
4518	7
4519	4
4520	2
4521	5
4522	4
4523	4
4524	5
4525	7
4526	5
4527	5
4528	4
4529	1
4530	3
4531	2
4532	2
4533	5
4534	1
4535	5
4536	6
4537	4
4538	0
4539	1
4540	2
4541	1
4542	2
4543	3
4544	3
4545	6
4546	6
4547	7
4548	4
4549	2
4550	4
4551	2
4552	5
4553	3
4554	3
4555	2
4556	6
4557	5
4558	3
4559	1
4560	1
4561	2
4562	3
4563	2
4564	6
4565	3
4566	3
4567	4
4568	6
4569	5
4570	4
4571	1
4572	4
4573	2
4574	9
4575	4
4576	4
4577	4
4578	2
4579	2
4580	1
4581	3
4582	2
4583	5
4584	2
4585	2
4586	6
4587	2
4588	4
4589	1
4590	3
4591	1
4592	1
4593	3
4594	6
4595	9
4596	0
4597	5
4598	2
4599	4
4600	1
4601	6
4602	4
4603	0
4604	2
4605	1
4606	6
4607	2
4608	5
4609	1
4610	6
4611	4
4612	1
4613	2
4614	5
4615	5
4616	1
4617	4
4618	2
4619	4
4620	4
4621	2
4622	6
4623	3
4624	6
4625	3
4626	6
4627	3
4628	6
4629	3
4630	3
4631	4
4632	3
4633	1
4634	5
4635	5
4636	9
4637	4
4638	1
4639	6
4640	7
4641	8
4642	3
4643	4
4644	3
4645	3
4646	2
4647	3
4648	2
4649	3
4650	1
4651	5
4652	7
4653	2
4654	4
4655	2
4656	2
4657	4
4658	3
4659	2
4660	2
4661	4
4662	2
4663	5
4664	2
4665	4
4666	3
4667	5
4668	5
4669	3
4670	2
4671	4
4672	3
4673	5
4674	5
4675	1
4676	7
4677	7
4678	1
4679	4
4680	6
4681	6
4682	1
4683	5
4684	5
4685	5
4686	5
4687	6
4688	10
4689	13
4690	16
4691	13
4692	20
4693	31
4694	22
4695	22
4696	19
4697	11
4698	15
4699	4
4700	4
4701	8
4702	9
4703	4
4704	4
4705	1
4706	4
4707	7
4708	4
4709	1
4710	1
4711	4
4712	3
4713	5
4714	2
4715	0
4716	1
4717	6
4718	1
4719	3
4720	0
4721	2
4722	5
4723	4
4724	6
4725	2
4726	3
4727	6
4728	0
4729	3
4730	5
4731	3
4732	4
4733	1
4734	3
4735	2
4736	3
4737	3
4738	2
4739	2
4740	2
4741	4
4742	5
4743	2
4744	7
4745	5
4746	2
4747	3
4748	6
4749	0
4750	6
4751	6
4752	1
4753	3
4754	2
4755	3
4756	1
4757	3
4758	5
4759	4
4760	1
4761	3
4762	3
4763	2
4764	2
4765	6
4766	3
4767	3
4768	3
4769	3
4770	3
4771	6
4772	3
4773	0
4774	4
4775	0
4776	3
4777	3
4778	5
4779	1
4780	2
4781	3
4782	2
4783	2
4784	2
4785	2
4786	3
4787	5
4788	4
4789	1
4790	6
4791	3
4792	2
4793	2
4794	2
4795	2
4796	3
4797	6
4798	1
4799	3
4800	7
4801	4
4802	2
4803	3
4804	3
4805	2
4806	2
4807	3
4808	6
4809	5
4810	3
4811	4
4812	6
4813	0
4814	6
4815	5
4816	5
4817	3
4818	8
4819	4
4820	3
4821	6
4822	2
4823	7
4824	8
4825	3
4826	4
4827	7
4828	2
4829	2
4830	2
4831	3
4832	5
4833	2
4834	3
4835	3
4836	1
4837	3
4838	5
4839	4
4840	3
4841	3
4842	7
4843	4
4844	5
4845	4
4846	5
4847	3
4848	3
4849	3
4850	2
4851	4
4852	4
4853	4
4854	6
4855	3
4856	5
4857	0
4858	3
4859	4
4860	2
4861	5
4862	4
4863	2
4864	4
4865	3
4866	3
4867	7
4868	2
4869	3
4870	5
4871	0
4872	2
4873	5
4874	5
4875	6
4876	3
4877	3
4878	3
4879	4
4880	4
4881	3
4882	3
4883	2
4884	3
4885	3
4886	3
4887	1
4888	3
4889	4
4890	4
4891	3
4892	0
4893	4
4894	2
4895	4
4896	1
4897	4
4898	4
4899	3
4900	4
4901	3
4902	1
4903	4
4904	4
4905	3
4906	2
4907	2
4908	7
4909	1
4910	4
4911	3
4912	4
4913	3
4914	6
4915	5
4916	3
4917	3
4918	1
4919	7
4920	1
4921	4
4922	2
4923	4
4924	3
4925	3
4926	5
4927	3
4928	2
4929	3
4930	3
4931	2
4932	2
4933	4
4934	5
4935	2
4936	4
4937	2
4938	9
4939	3
4940	3
4941	3
4942	3
4943	8
4944	3
4945	6
4946	2
4947	4
4948	3
4949	4
4950	1
4951	3
4952	2
4953	3
4954	5
4955	5
4956	2
4957	1
4958	6
4959	3
4960	2
4961	1
4962	8
4963	3
4964	2
4965	1
4966	1
4967	1
4968	7
4969	2
4970	0
4971	3
4972	4
4973	1
4974	4
4975	1
4976	4
4977	4
4978	2
4979	1
4980	1
4981	1
4982	4
4983	4
4984	2
4985	5
4986	2
4987	1
4988	4
4989	3
4990	1
4991	4
4992	2
4993	3
4994	0
4995	4
4996	4
4997	4
4998	2
4999	2
5000	0
5001	2
5002	3
5003	3
5004	5
5005	3
5006	5
5007	3
5008	7
5009	4
5010	4
5011	1
5012	4
5013	3
5014	2
5015	6
5016	0
5017	8
5018	3
5019	1
5020	3
5021	2
5022	2
5023	4
5024	3
5025	5
5026	2
5027	4
5028	0
5029	1
5030	4
5031	3
5032	3
5033	2
5034	2
5035	2
5036	2
5037	4
5038	5
5039	1
5040	3
5041	3
5042	0
5043	4
5044	3
5045	6
5046	3
5047	1
5048	5
5049	5
5050	7
5051	1
5052	6
5053	3
5054	0
5055	2
5056	3
5057	3
5058	6
5059	2
5060	5
5061	1
5062	5
5063	5
5064	3
5065	5
5066	3
5067	2
5068	6
5069	5
5070	5
5071	3
5072	3
5073	2
5074	1
5075	5
5076	7
5077	4
5078	2
5079	6
5080	0
5081	1
5082	5
5083	2
5084	5
5085	2
5086	2
5087	1
5088	7
5089	3
5090	3
5091	3
5092	6
5093	3
5094	5
5095	5
5096	1
5097	6
5098	6
5099	3
5100	1
5101	2
5102	3
5103	2
5104	4
5105	4
5106	3
5107	2
5108	8
5109	3
5110	4
5111	2
5112	6
5113	3
5114	4
5115	2
5116	6
5117	4
5118	7
5119	7
5120	5
5121	1
5122	3
5123	1
5124	3
5125	4
5126	4
5127	0
5128	4
5129	2
5130	1
5131	4
5132	1
5133	6
5134	0
5135	9
5136	4
5137	0
5138	4
5139	3
5140	4
5141	3
5142	3
5143	3
5144	1
5145	4
5146	6
5147	4
5148	2
5149	0
5150	5
5151	1
5152	8
5153	0
5154	4
5155	2
5156	2
5157	0
5158	4
5159	8
5160	4
5161	0
5162	1
5163	3
5164	2
5165	3
5166	2
5167	1
5168	3
5169	1
5170	0
5171	2
5172	3
5173	1
5174	2
5175	5
5176	3
5177	9
5178	4
5179	3
5180	9
5181	6
5182	1
5183	4
5184	2
5185	4
5186	5
5187	3
5188	4
5189	0
5190	6
5191	4
5192	11
5193	4
5194	2
5195	2
5196	5
5197	5
5198	6
5199	5
5200	5
5201	2
5202	1
5203	0
5204	4
5205	1
5206	3
5207	3
5208	2
5209	1
5210	4
5211	7
5212	2
5213	7
5214	4
5215	4
5216	2
5217	5
5218	4
5219	3
5220	3
5221	3
5222	0
5223	7
5224	3
5225	4
5226	2
5227	3
5228	3
5229	2
5230	1
5231	8
5232	5
5233	5
5234	1
5235	3
5236	1
5237	6
5238	3
5239	3
5240	4
5241	1
5242	5
5243	0
5244	0
5245	3
5246	3
5247	3
5248	0
5249	2
5250	2
5251	2
5252	2
5253	2
5254	1
5255	5
5256	1
5257	2
5258	4
5259	1
5260	4
5261	1
5262	2
5263	4
5264	3
5265	1
5266	2
5267	0
5268	6
5269	1
5270	5
5271	4
5272	5
5273	1
5274	4
5275	5
5276	4
5277	2
5278	2
5279	5
5280	2
5281	1
5282	1
5283	4
5284	2
5285	3
5286	4
5287	1
5288	4
5289	5
5290	2
5291	3
5292	4
5293	1
5294	1
5295	6
5296	4
5297	6
5298	3
5299	2
5300	4
5301	3
5302	2
5303	4
5304	3
5305	2
5306	2
5307	2
5308	3
5309	4
5310	2
5311	3
5312	4
5313	6
5314	6
5315	3
5316	5
5317	3
5318	4
5319	5
5320	4
5321	3
5322	1
5323	3
5324	0
5325	3
5326	2
5327	3
5328	3
5329	1
5330	3
5331	0
5332	0
5333	5
5334	2
5335	2
5336	7
5337	3
5338	2
5339	6
5340	4
5341	7
5342	3
5343	0
5344	4
5345	4
5346	0
5347	2
5348	1
5349	2
5350	2
5351	5
5352	2
5353	8
5354	1
5355	1
5356	2
5357	1
5358	3
5359	1
5360	5
5361	3
5362	3
5363	1
5364	5
5365	4
5366	2
5367	5
5368	2
5369	4
5370	3
5371	3
5372	2
5373	3
5374	2
5375	0
5376	2
5377	2
5378	0
5379	5
5380	3
5381	2
5382	2
5383	1
5384	8
5385	4
5386	5
5387	2
5388	2
5389	2
5390	4
5391	6
5392	3
5393	4
5394	5
5395	0
5396	2
5397	2
5398	3
5399	4
5400	2
5401	2
5402	1
5403	7
5404	1
5405	1
5406	5
5407	2
5408	2
5409	1
5410	5
5411	4
5412	4
5413	1
5414	8
5415	2
5416	4
5417	5
5418	3
5419	1
5420	2
5421	3
5422	2
5423	6
5424	1
5425	1
5426	1
5427	4
5428	3
5429	0
5430	2
5431	3
5432	2
5433	3
5434	4
5435	2
5436	2
5437	3
5438	0
5439	2
5440	4
5441	2
5442	1
5443	1
5444	4
5445	5
5446	4
5447	4
5448	5
5449	3
5450	0
5451	2
5452	2
5453	2
5454	5
5455	4
5456	5
5457	6
5458	4
5459	3
5460	5
5461	4
5462	2
5463	4
5464	3
5465	0
5466	2
5467	3
5468	2
5469	2
5470	4
5471	1
5472	2
5473	1
5474	1
5475	6
5476	2
5477	7
5478	4
5479	5
5480	2
5481	4
5482	3
5483	1
5484	1
5485	2
5486	5
5487	4
5488	1
5489	5
5490	3
5491	3
5492	3
5493	4
5494	3
5495	0
5496	1
5497	9
5498	3
5499	3
5500	2
5501	4
5502	1
5503	3
5504	3
5505	3
5506	2
5507	5
5508	2
5509	3
5510	1
5511	2
5512	4
5513	2
5514	5
5515	1
5516	3
5517	2
5518	7
5519	2
5520	4
5521	1
5522	2
5523	1
5524	3
5525	5
5526	5
5527	4
5528	2
5529	3
5530	5
5531	1
5532	2
5533	1
5534	0
5535	4
5536	0
5537	3
5538	0
5539	2
5540	3
5541	2
5542	6
5543	2
5544	2
5545	0
5546	2
5547	3
5548	1
5549	2
5550	1
5551	2
5552	4
5553	3
5554	4
5555	0
5556	4
5557	3
5558	1
5559	4
5560	3
5561	2
5562	2
5563	3
5564	3
5565	4
5566	3
5567	1
5568	3
5569	5
5570	4
5571	1
5572	0
5573	2
5574	3
5575	5
5576	2
5577	2
5578	3
5579	6
5580	3
5581	2
5582	1
5583	3
5584	7
5585	4
5586	7
5587	2
5588	2
5589	0
5590	8
5591	2
5592	0
5593	3
5594	1
5595	1
5596	5
5597	5
5598	2
5599	3
5600	1
5601	7
5602	2
5603	3
5604	2
5605	3
5606	3
5607	6
5608	5
5609	1
5610	1
5611	0
5612	2
5613	1
5614	2
5615	4
5616	4
5617	4
5618	1
5619	0
5620	2
5621	3
5622	5
5623	4
5624	2
5625	3
5626	1
5627	4
5628	2
5629	4
5630	6
5631	2
5632	4
5633	4
5634	4
5635	2
5636	4
5637	4
5638	3
5639	0
5640	2
5641	3
5642	1
5643	4
5644	3
5645	2
5646	1
5647	0
5648	5
5649	0
5650	4
5651	0
5652	4
5653	0
5654	2
5655	2
5656	3
5657	2
5658	1
5659	1
5660	3
5661	0
5662	0
5663	4
5664	3
5665	3
5666	3
5667	3
5668	5
5669	1
5670	3
5671	2
5672	1
5673	2
5674	3
5675	3
5676	2
5677	1
5678	2
5679	4
5680	3
5681	3
5682	1
5683	2
5684	1
5685	2
5686	0
5687	3
5688	2
5689	1
5690	4
5691	5
5692	4
5693	2
5694	3
5695	4
5696	1
5697	2
5698	3
5699	5
5700	4
5701	3
5702	2
5703	2
5704	0
5705	1
5706	5
5707	5
5708	2
5709	0
5710	3
5711	0
5712	1
5713	2
5714	3
5715	4
5716	3
5717	0
5718	4
5719	5
5720	4
5721	1
5722	1
5723	2
5724	1
5725	3
5726	3
5727	5
5728	2
5729	5
5730	1
5731	6
5732	1
5733	3
5734	1
5735	1
5736	3
5737	1
5738	1
5739	3
5740	2
5741	5
5742	2
5743	4
5744	1
5745	2
5746	1
5747	3
5748	4
5749	1
5750	2
5751	2
5752	3
5753	1
5754	4
5755	4
5756	3
5757	4
5758	4
5759	7
5760	4
5761	4
5762	2
5763	0
5764	2
5765	5
5766	3
5767	3
5768	2
5769	2
5770	5
5771	4
5772	2
5773	2
5774	2
5775	8
5776	8
5777	3
5778	1
5779	3
5780	3
5781	4
5782	5
5783	6
5784	1
5785	1
5786	2
5787	2
5788	6
5789	1
5790	3
5791	1
5792	2
5793	4
5794	6
5795	1
5796	3
5797	5
5798	3
5799	1
5800	6
5801	2
5802	2
5803	6
5804	3
5805	5
5806	4
5807	3
5808	4
5809	0
5810	0
5811	3
5812	5
5813	3
5814	1
5815	2
5816	2
5817	2
5818	2
5819	5
5820	1
5821	2
5822	3
5823	2
5824	3
5825	5
5826	4
5827	2
5828	2
5829	2
5830	4
5831	3
5832	5
5833	4
5834	5
5835	3
5836	0
5837	6
5838	2
5839	5
5840	2
5841	1
5842	4
5843	5
5844	4
5845	6
5846	3
5847	4
5848	3
5849	3
5850	1
5851	1
5852	1
5853	2
5854	2
5855	7
5856	3
5857	3
5858	2
5859	3
5860	4
5861	3
5862	8
5863	1
5864	3
5865	4
5866	6
5867	2
5868	2
5869	1
5870	1
5871	3
5872	6
5873	8
5874	5
5875	3
5876	3
5877	6
5878	2
5879	2
5880	5
5881	4
5882	4
5883	2
5884	2
5885	4
5886	0
5887	2
5888	2
5889	4
5890	3
5891	4
5892	5
5893	2
5894	2
5895	3
5896	1
5897	3
5898	0
5899	2
5900	3
5901	5
5902	2
5903	3
5904	6
5905	6
5906	5
5907	2
5908	2
5909	5
5910	2
5911	3
5912	0
5913	5
5914	9
5915	5
5916	1
5917	2
5918	3
5919	4
5920	4
5921	3
5922	5
5923	6
5924	2
5925	6
5926	5
5927	0
5928	0
5929	1
5930	6
5931	2
5932	2
5933	2
5934	1
5935	6
5936	3
5937	1
5938	3
5939	5
5940	7
5941	1
5942	4
5943	5
5944	5
5945	8
5946	6
5947	3
5948	4
5949	2
5950	5
5951	0
5952	3
5953	2
5954	1
5955	6
5956	4
5957	2
5958	6
5959	6
5960	4
5961	8
5962	7
5963	6
5964	7
5965	4
5966	3
5967	4
5968	4
5969	5
5970	4
5971	3
5972	3
5973	4
5974	7
5975	3
5976	6
5977	5
5978	4
5979	4
5980	3
5981	4
5982	3
5983	5
5984	4
5985	8
5986	2
5987	6
5988	6
5989	6
5990	4
5991	4
5992	3
5993	6
5994	4
5995	2
5996	1
5997	3
5998	8
5999	4
6000	4
6001	10
6002	1
6003	5
6004	5
6005	3
6006	5
6007	5
6008	4
6009	5
6010	6
6011	2
6012	3
6013	5
6014	1
6015	3
6016	2
6017	3
6018	4
6019	2
6020	2
6021	2
6022	2
6023	1
6024	3
6025	4
6026	4
6027	3
6028	4
6029	5
6030	1
6031	0
6032	4
6033	1
6034	2
6035	0
6036	5
6037	1
6038	1
6039	5
6040	1
6041	3
6042	2
6043	1
6044	1
6045	1
6046	1
6047	3
6048	1
6049	0
6050	2
6051	2
6052	0
6053	2
6054	3
6055	1
6056	0
6057	4
6058	2
6059	1
6060	1
6061	3
6062	1
6063	2
6064	3
6065	1
6066	4
6067	2
6068	2
6069	5
6070	5
6071	2
6072	1
6073	4
6074	2
6075	1
6076	3
6077	3
6078	2
6079	3
6080	0
6081	4
6082	2
6083	1
6084	1
6085	1
6086	1
6087	2
6088	1
6089	3
6090	1
6091	1
6092	2
6093	2
6094	1
6095	6
6096	2
6097	1
6098	2
6099	1
6100	3
6101	4
6102	1
6103	2
6104	3
6105	1
6106	3
6107	1
6108	1
6109	0
6110	2
6111	1
6112	1
6113	1
6114	1
6115	2
6116	3
6117	2
6118	0
6119	3
6120	1
6121	4
6122	1
6123	3
6124	1
6125	1
6126	1
6127	2
6128	2
6129	1
6130	2
6131	2
6132	1
6133	2
6134	2
6135	1
6136	1
6137	2
6138	0
6139	3
6140	2
6141	3
6142	3
6143	2
6144	1
6145	2
6146	1
6147	3
6148	3
6149	1
6150	3
6151	0
6152	3
6153	3
6154	2
6155	2
6156	1
6157	2
6158	2
6159	0
6160	2
6161	2
6162	1
6163	0
6164	0
6165	1
6166	2
6167	2
6168	1
6169	1
6170	0
6171	1
6172	1
6173	3
6174	2
6175	1
6176	1
6177	3
6178	4
6179	0
6180	3
6181	0
6182	0
6183	2
6184	1
6185	1
6186	2
6187	4
6188	2
6189	3
6190	3
6191	1
6192	0
6193	1
6194	2
6195	0
6196	0
6197	0
6198	1
6199	0
6200	2
6201	2
6202	0
6203	0
6204	4
6205	1
6206	0
6207	1
6208	1
6209	1
6210	0
6211	3
6212	2
6213	1
6214	0
6215	0
6216	4
6217	0
6218	1
6219	2
6220	1
6221	1
6222	1
6223	0
6224	1
6225	2
6226	0
6227	1
6228	0
6229	1
6230	0
6231	1
6232	0
6233	2
6234	3
6235	1
6236	0
6237	2
6238	1
6239	0
6240	2
6241	0
6242	0
6243	3
6244	1
6245	1
6246	0
6247	0
6248	4
6249	0
6250	1
6251	1
6252	0
6253	0
6254	1
6255	1
6256	0
6257	1
6258	2
6259	0
6260	1
6261	0
6262	0
6263	1
6264	1
6265	0
6266	1
6267	0
6268	1
6269	0
6270	0
6271	1
6272	1
6273	0
6274	1
6275	1
6276	0
6277	2
6278	0
6279	0
6280	4
6281	1
6282	2
6283	0
6284	1
6285	0
6286	2
6287	2
6288	0
6289	1
6290	0
6291	0
6292	0
6293	1
6294	0
6295	0
6296	0
6297	1
6298	0
6299	0
6300	0
6301	0
6302	0
6303	0
6304	0
6305	0
6306	0
6307	0
6308	4
6309	1
6310	1
6311	0
6312	1
6313	0
6314	0
6315	1
6316	0
6317	1
6318	0
6319	1
6320	1
6321	0
6322	1
6323	0
6324	1
6325	0
6326	1
6327	0
6328	1
6329	0
6330	3
6331	0
6332	0
6333	1
6334	0
6335	1
6336	0
6337	1
6338	0
6339	1
6340	3
6341	1
6342	0
6343	0
6344	0
6345	1
6346	0
6347	0
6348	1
6349	0
6350	1
6351	1
6352	0
6353	1
6354	0
6355	0
6356	0
6357	0
6358	0
6359	0
6360	0
6361	0
6362	1
6363	0
6364	0
6365	0
6366	0
6367	0
6368	0
6369	0
6370	1
6371	0
6372	0
6373	1
6374	1
6375	0
6376	0
6377	0
6378	1
6379	0
6380	0
6381	1
6382	1
6383	0
6384	0
6385	1
6386	0
6387	0
6388	0
6389	1
6390	1
6391	0
6392	2
6393	0
6394	0
6395	2
6396	1
6397	0
6398	1
6399	0
6400	0
6401	1
6402	2
6403	0
6404	0
6405	0
6406	1
6407	0
6408	2
6409	0
6410	0
6411	0
6412	0
6413	1
6414	2
6415	0
6416	0
6417	0
6418	1
6419	1
6420	1
6421	0
6422	0
6423	0
6424	1
6425	0
6426	0
6427	0
6428	0
6429	0
6430	1
6431	0
6432	0
6433	0
6434	2
6435	0
6436	0
6437	0
6438	0
6439	0
6440	1
6441	0
6442	1
6443	1
6444	1
6445	0
6446	1
6447	0
6448	0
6449	0
6450	0
6451	0
6452	0
6453	0
6454	0
6455	0
6456	1
6457	0
6458	0
6459	0
6460	0
6461	0
6462	0
6463	1
6464	0
6465	0
6466	0
6467	0
6468	0
6469	0
6470	0
6471	0
6472	0
6473	1
6474	0
6475	1
6476	0
6477	1
6478	0
6479	0
6480	0
6481	0
6482	0
6483	1
6484	0
6485	0
6486	0
6487	0
6488	1
6489	0
6490	1
6491	0
6492	0
6493	0
6494	0
6495	0
6496	0
6497	1
6498	0
6499	0
6500	0
6501	1
6502	0
6503	1
6504	0
6505	0
6506	0
6507	0
6508	1
6509	1
6510	2
6511	0
6512	1
6513	0
6514	0
6515	1
6516	0
6517	0
6518	0
6519	1
6520	1
6521	1
6522	0
6523	0
6524	1
6525	0
6526	0
6527	0
6528	0
6529	1
6530	0
6531	0
6532	0
6533	1
6534	1
6535	1
6536	2
6537	1
6538	0
6539	1
6540	0
6541	1
6542	0
6543	1
6544	0
6545	2
6546	2
6547	0
6548	0
6549	1
6550	3
6551	0
6552	1
6553	3
6554	13
6555	16
6556	39
6557	43
6558	75
6559	98
6560	95
6561	92
6562	63
6563	47
6564	36
6565	11
6566	10
6567	3
6568	0
6569	0
6570	0
6571	0
6572	0
6573	0
6574	0
6575	0
6576	0
6577	0
6578	0
6579	0
6580	0
6581	0
6582	0
6583	0
6584	0
6585	0
6586	0
6587	0
6588	0
6589	0
6590	1
6591	0
6592	0
6593	0
6594	0
6595	0
6596	0
6597	0
6598	0
6599	0
6600	0
6601	0
6602	0
6603	0
6604	0
6605	0
6606	0
6607	1
6608	0
6609	0
6610	0
6611	0
6612	0
6613	0
6614	0
6615	1
6616	0
6617	0
6618	0
6619	0
6620	0
6621	0
6622	0
6623	0
6624	0
6625	0
6626	0
6627	1
6628	0
6629	0
6630	0
6631	1
6632	0
6633	0
6634	0
6635	0
6636	0
6637	0
6638	0
6639	0
6640	0
6641	0
6642	0
6643	0
6644	0
6645	0
6646	0
6647	1
6648	0
6649	1
6650	0
6651	0
6652	0
6653	0
6654	0
6655	0
6656	0
6657	0
6658	0
6659	0
6660	1
6661	0
6662	0
6663	0
6664	0
6665	0
6666	0
6667	0
6668	0
6669	0
6670	0
6671	0
6672	0
6673	0
6674	0
6675	0
6676	0
6677	0
6678	1
6679	0
6680	0
6681	0
6682	0
6683	0
6684	0
6685	0
6686	0
6687	0
6688	0
6689	0
6690	0
6691	0
6692	1
6693	0
6694	0
6695	1
6696	0
6697	0
6698	0
6699	1
6700	0
6701	0
6702	0
6703	0
6704	0
6705	0
6706	0
6707	0
6708	0
6709	0
6710	0
6711	0
6712	0
6713	0
6714	0
6715	0
6716	0
6717	0
6718	0
6719	0
6720	0
6721	0
6722	0
6723	0
6724	0
6725	0
6726	0
6727	0
6728	0
6729	0
6730	0
6731	1
6732	0
6733	0
6734	1
6735	0
6736	0
6737	0
6738	0
6739	0
6740	0
6741	0
6742	0
6743	0
6744	1
6745	0
6746	0
6747	0
6748	0
6749	0
6750	0
6751	0
6752	0
6753	0
6754	0
6755	0
6756	0
6757	0
6758	0
6759	0
6760	0
6761	0
6762	0
6763	0
6764	0
6765	0
6766	0
6767	0
6768	0
6769	0
6770	0
6771	0
6772	0
6773	0
6774	0
6775	0
6776	0
6777	0
6778	0
6779	0
6780	0
6781	0
6782	0
6783	0
6784	0
6785	0
6786	0
6787	0
6788	0
6789	0
6790	0
6791	0
6792	0
6793	0
6794	0
6795	0
6796	0
6797	0
6798	0
6799	0
6800	0
6801	0
6802	0
6803	0
6804	0
6805	0
6806	0
6807	0
6808	0
6809	0
6810	0
6811	1
6812	0
6813	0
6814	0
6815	0
6816	0
6817	1
6818	0
6819	0
6820	0
6821	0
6822	0
6823	0
6824	0
6825	0
6826	0
6827	0
6828	0
6829	0
6830	0
6831	0
6832	0
6833	0
6834	0
6835	0
6836	1
6837	0
6838	1
6839	1
6840	1
6841	2
6842	1
6843	1
6844	2
6845	2
6846	0
6847	0
6848	1
6849	0
6850	0
6851	0
6852	0
6853	0
6854	0
6855	0
6856	0
6857	0
6858	0
6859	0
6860	0
6861	0
6862	0
6863	0
6864	0
6865	0
6866	0
6867	0
6868	0
6869	0
6870	0
6871	1
6872	0
6873	0
6874	0
6875	0
6876	0
6877	0
6878	0
6879	0
6880	0
6881	0
6882	0
6883	0
6884	0
6885	0
6886	0
6887	0
6888	0
6889	0
6890	0
6891	0
6892	0
6893	0
6894	0
6895	0
6896	0
6897	0
6898	0
6899	0
6900	0
6901	0
6902	1
6903	0
6904	0
6905	0
6906	0
6907	0
6908	0
6909	0
6910	0
6911	0
6912	0
6913	0
6914	0
6915	0
6916	0
6917	0
6918	0
6919	0
6920	0
6921	0
6922	0
6923	0
6924	0
6925	0
6926	0
6927	0
6928	0
6929	0
6930	1
6931	0
6932	0
6933	0
6934	0
6935	0
6936	0
6937	0
6938	0
6939	0
6940	0
6941	0
6942	0
6943	0
6944	0
6945	0
6946	0
6947	0
6948	0
6949	0
6950	0
6951	0
6952	0
6953	0
6954	0
6955	1
6956	0
6957	0
6958	0
6959	0
6960	1
6961	0
6962	1
6963	0
6964	0
6965	0
6966	0
6967	0
6968	0
6969	0
6970	1
6971	0
6972	0
6973	0
6974	0
6975	1
6976	0
6977	0
6978	0
6979	0
6980	0
6981	0
6982	0
6983	0
6984	0
6985	0
6986	0
6987	0
6988	0
6989	0
6990	0
6991	0
6992	0
6993	0
6994	0
6995	0
6996	0
6997	0
6998	0
6999	0
7000	0
7001	0
7002	0
7003	0
7004	0
7005	0
7006	0
7007	0
7008	0
7009	0
7010	0
7011	0
7012	1
7013	0
7014	0
7015	0
7016	0
7017	0
7018	0
7019	0
7020	0
7021	0
7022	0
7023	0
7024	0
7025	0
7026	0
7027	0
7028	0
7029	0
7030	1
7031	0
7032	0
7033	1
7034	0
7035	0
7036	0
7037	0
7038	0
7039	0
7040	0
7041	0
7042	0
7043	0
7044	0
7045	0
7046	0
7047	0
7048	0
7049	0
7050	0
7051	0
7052	0
7053	0
7054	0
7055	0
7056	0
7057	0
7058	0
7059	0
7060	0
7061	0
7062	0
7063	0
7064	0
7065	0
7066	0
7067	0
7068	0
7069	0
7070	0
7071	0
7072	0
7073	0
7074	1
7075	0
7076	0
7077	0
7078	0
7079	0
7080	0
7081	0
7082	0
7083	0
7084	0
7085	0
7086	0
7087	0
7088	0
7089	0
7090	0
7091	0
7092	0
7093	0
7094	0
7095	0
7096	0
7097	0
7098	0
7099	0
7100	0
7101	0
7102	0
7103	1
7104	0
7105	0
7106	0
7107	0
7108	0
7109	0
7110	0
7111	0
7112	0
7113	0
7114	0
7115	0
7116	0
7117	0
7118	0
7119	0
7120	0
7121	0
7122	0
7123	0
7124	0
7125	0
7126	0
7127	0
7128	0
7129	0
7130	0
7131	0
7132	0
7133	0
7134	0
7135	0
7136	0
7137	0
7138	0
7139	0
7140	1
7141	0
7142	0
7143	0
7144	0
7145	0
7146	0
7147	0
7148	0
7149	0
7150	0
7151	0
7152	0
7153	0
7154	0
7155	0
7156	0
7157	0
7158	0
7159	0
7160	0
7161	0
7162	0
7163	0
7164	0
7165	0
7166	0
7167	0
7168	0
7169	0
7170	0
7171	0
7172	0
7173	0
7174	0
7175	0
7176	0
7177	0
7178	0
7179	0
7180	0
7181	0
7182	0
7183	0
7184	0
7185	0
7186	0
7187	0
7188	0
7189	0
7190	0
7191	0
7192	0
7193	0
7194	0
7195	0
7196	0
7197	0
7198	0
7199	0
7200	0
7201	0
7202	0
7203	0
7204	0
7205	0
7206	0
7207	0
7208	0
7209	0
7210	0
7211	0
7212	0
7213	0
7214	0
7215	0
7216	0
7217	0
7218	0
7219	0
7220	0
7221	0
7222	0
7223	0
7224	0
7225	0
7226	0
7227	0
7228	0
7229	0
7230	0
7231	0
7232	0
7233	0
7234	1
7235	0
7236	0
7237	0
7238	0
7239	0
7240	0
7241	0
7242	0
7243	0
7244	0
7245	0
7246	0
7247	0
7248	0
7249	0
7250	0
7251	0
7252	0
7253	0
7254	0
7255	0
7256	0
7257	0
7258	0
7259	0
7260	0
7261	0
7262	0
7263	0
7264	0
7265	0
7266	0
7267	0
7268	0
7269	0
7270	0
7271	0
7272	0
7273	0
7274	0
7275	0
7276	0
7277	0
7278	0
7279	0
7280	0
7281	0
7282	0
7283	0
7284	0
7285	0
7286	0
7287	0
7288	0
7289	0
7290	0
7291	0
7292	0
7293	0
7294	0
7295	0
7296	0
7297	0
7298	0
7299	0
7300	0
7301	0
7302	0
7303	0
7304	0
7305	0
7306	0
7307	0
7308	0
7309	0
7310	0
7311	0
7312	0
7313	0
7314	0
7315	0
7316	0
7317	0
7318	0
7319	0
7320	0
7321	0
7322	0
7323	0
7324	0
7325	0
7326	0
7327	0
7328	0
7329	0
7330	0
7331	0
7332	0
7333	0
7334	0
7335	0
7336	0
7337	0
7338	0
7339	0
7340	0
7341	0
7342	0
7343	0
7344	0
7345	0
7346	0
7347	0
7348	0
7349	0
7350	0
7351	0
7352	0
7353	0
7354	0
7355	0
7356	0
7357	0
7358	0
7359	0
7360	0
7361	0
7362	0
7363	0
7364	0
7365	0
7366	0
7367	1
7368	0
7369	0
7370	0
7371	0
7372	0
7373	0
7374	0
7375	0
7376	0
7377	0
7378	0
7379	0
7380	0
7381	0
7382	0
7383	0
7384	0
7385	0
7386	0
7387	0
7388	0
7389	0
7390	0
7391	0
7392	0
7393	0
7394	1
7395	0
7396	0
7397	0
7398	0
7399	0
7400	0
7401	0
7402	0
7403	0
7404	0
7405	0
7406	0
7407	0
7408	0
7409	0
7410	0
7411	0
7412	0
7413	0
7414	0
7415	0
7416	0
7417	0
7418	0
7419	0
7420	0
7421	0
7422	0
7423	0
7424	0
7425	0
7426	0
7427	0
7428	0
7429	0
7430	0
7431	0
7432	0
7433	0
7434	0
7435	0
7436	0
7437	0
7438	0
7439	0
7440	0
7441	0
7442	0
7443	0
7444	0
7445	0
7446	0
7447	0
7448	0
7449	0
7450	0
7451	0
7452	0
7453	0
7454	0
7455	0
7456	0
7457	0
7458	0
7459	0
7460	0
7461	0
7462	0
7463	0
7464	0
7465	0
7466	0
7467	0
7468	0
7469	0
7470	0
7471	0
7472	0
7473	0
7474	0
7475	0
7476	0
7477	0
7478	0
7479	0
7480	0
7481	0
7482	0
7483	0
7484	0
7485	0
7486	0
7487	0
7488	0
7489	0
7490	0
7491	0
7492	0
7493	0
7494	1
7495	0
7496	0
7497	0
7498	0
7499	0
7500	0
7501	0
7502	0
7503	0
7504	0
7505	0
7506	0
7507	0
7508	0
7509	0
7510	0
7511	0
7512	0
7513	0
7514	0
7515	0
7516	0
7517	0
7518	0
7519	0
7520	0
7521	0
7522	0
7523	0
7524	0
7525	0
7526	0
7527	0
7528	0
7529	0
7530	1
7531	0
7532	0
7533	0
7534	0
7535	0
7536	0
7537	0
7538	0
7539	0
7540	0
7541	0
7542	0
7543	0
7544	0
7545	0
7546	0
7547	0
7548	0
7549	0
7550	0
7551	0
7552	0
7553	0
7554	0
7555	0
7556	1
7557	0
7558	0
7559	0
7560	0
7561	0
7562	0
7563	0
7564	1
7565	0
7566	0
7567	0
7568	0
7569	0
7570	0
7571	0
7572	0
7573	0
7574	0
7575	0
7576	0
7577	0
7578	1
7579	0
7580	0
7581	0
7582	0
7583	0
7584	0
7585	0
7586	0
7587	0
7588	0
7589	0
7590	0
7591	0
7592	0
7593	0
7594	0
7595	0
7596	0
7597	0
7598	0
7599	0
7600	0
7601	0
7602	0
7603	0
7604	0
7605	0
7606	0
7607	0
7608	0
7609	0
7610	0
7611	0
7612	0
7613	0
7614	0
7615	0
7616	1
7617	0
7618	0
7619	0
7620	0
7621	0
7622	0
7623	0
7624	0
7625	0
7626	0
7627	0
7628	0
7629	0
7630	0
7631	0
7632	1
7633	0
7634	0
7635	0
7636	0
7637	0
7638	0
7639	0
7640	0
7641	0
7642	0
7643	0
7644	0
7645	0
7646	0
7647	0
7648	0
7649	0
7650	0
7651	0
7652	0
7653	0
7654	0
7655	0
7656	0
7657	0
7658	0
7659	0
7660	0
7661	0
7662	0
7663	0
7664	0
7665	0
7666	0
7667	0
7668	0
7669	0
7670	0
7671	0
7672	0
7673	0
7674	0
7675	0
7676	0
7677	0
7678	0
7679	0
7680	0
7681	0
7682	0
7683	0
7684	0
7685	0
7686	0
7687	0
7688	0
7689	0
7690	0
7691	0
7692	0
7693	0
7694	0
7695	0
7696	0
7697	0
7698	0
7699	0
7700	0
7701	0
7702	0
7703	0
7704	0
7705	0
7706	0
7707	0
7708	0
7709	0
7710	0
7711	0
7712	0
7713	0
7714	0
7715	0
7716	0
7717	0
7718	0
7719	0
7720	0
7721	0
7722	0
7723	0
7724	0
7725	0
7726	0
7727	0
7728	1
7729	0
7730	0
7731	0
7732	0
7733	0
7734	0
7735	0
7736	0
7737	0
7738	0
7739	0
7740	0
7741	0
7742	0
7743	0
7744	0
7745	0
7746	0
7747	0
7748	0
7749	0
7750	0
7751	0
7752	0
7753	0
7754	0
7755	0
7756	0
7757	0
7758	0
7759	1
7760	0
7761	0
7762	0
7763	0
7764	0
7765	0
7766	0
7767	0
7768	0
7769	0
7770	0
7771	0
7772	0
7773	0
7774	0
7775	0
7776	0
7777	0
7778	0
7779	0
7780	0
7781	0
7782	0
7783	0
7784	0
7785	0
7786	0
7787	0
7788	0
7789	0
7790	0
7791	0
7792	0
7793	0
7794	0
7795	0
7796	0
7797	0
7798	0
7799	0
7800	0
7801	0
7802	0
7803	0
7804	0
7805	0
7806	0
7807	0
7808	0
7809	1
7810	0
7811	0
7812	0
7813	0
7814	0
7815	0
7816	0
7817	0
7818	0
7819	0
7820	0
7821	0
7822	0
7823	0
7824	0
7825	0
7826	0
7827	0
7828	0
7829	0
7830	0
7831	0
7832	0
7833	0
7834	0
7835	0
7836	0
7837	0
7838	0
7839	0
7840	0
7841	0
7842	0
7843	0
7844	1
7845	0
7846	0
7847	1
7848	0
7849	0
7850	0
7851	0
7852	0
7853	0
7854	0
7855	0
7856	0
7857	0
7858	0
7859	0
7860	0
7861	0
7862	0
7863	0
7864	0
7865	0
7866	0
7867	0
7868	0
7869	0
7870	0
7871	0
7872	0
7873	0
7874	0
7875	0
7876	0
7877	0
7878	0
7879	0
7880	0
7881	0
7882	0
7883	0
7884	0
7885	0
7886	0
7887	0
7888	0
7889	0
7890	0
7891	0
7892	0
7893	0
7894	0
7895	0
7896	0
7897	0
7898	0
7899	0
7900	0
7901	0
7902	1
7903	0
7904	0
7905	0
7906	0
7907	0
7908	0
7909	0
7910	0
7911	0
7912	0
7913	0
7914	0
7915	0
7916	0
7917	0
7918	0
7919	0
7920	0
7921	1
7922	0
7923	0
7924	0
7925	0
7926	0
7927	0
7928	0
7929	0
7930	0
7931	0
7932	0
7933	0
7934	0
7935	0
7936	0
7937	0
7938	0
7939	0
7940	0
7941	0
7942	0
7943	0
7944	0
7945	0
7946	0
7947	0
7948	0
7949	0
7950	0
7951	0
7952	0
7953	0
7954	0
7955	0
7956	0
7957	0
7958	0
7959	0
7960	0
7961	0
7962	0
7963	0
7964	0
7965	0
7966	0
7967	1
7968	0
7969	0
7970	0
7971	0
7972	0
7973	0
7974	0
7975	0
7976	0
7977	0
7978	0
7979	0
7980	0
7981	0
7982	0
7983	0
7984	0
7985	0
7986	0
7987	0
7988	0
7989	0
7990	0
7991	0
7992	0
7993	0
7994	0
7995	0
7996	0
7997	0
7998	0
7999	0
8000	0
8001	0
8002	0
8003	0
8004	0
8005	0
8006	0
8007	0
8008	0
8009	0
8010	0
8011	0
8012	0
8013	0
8014	0
8015	0
8016	0
8017	0
8018	1
8019	0
8020	0
8021	0
8022	0
8023	0
8024	0
8025	0
8026	0
8027	0
8028	0
8029	0
8030	0
8031	0
8032	0
8033	0
8034	0
8035	0
8036	0
8037	0
8038	0
8039	0
8040	0
8041	0
8042	0
8043	0
8044	0
8045	0
8046	0
8047	0
8048	0
8049	0
8050	0
8051	0
8052	0
8053	0
8054	0
8055	0
8056	0
8057	0
8058	0
8059	0
8060	0
8061	0
8062	0
8063	0
8064	0
8065	0
8066	0
8067	0
8068	0
8069	0
8070	0
8071	0
8072	0
8073	0
8074	0
8075	0
8076	0
8077	0
8078	0
8079	0
8080	0
8081	0
8082	0
8083	0
8084	0
8085	0
8086	0
8087	0
8088	0
8089	0
8090	0
8091	0
8092	0
8093	0
8094	0
8095	0
8096	0
8097	0
8098	0
8099	0
8100	0
8101	0
8102	0
8103	0
8104	0
8105	0
8106	0
8107	0
8108	0
8109	0
8110	0
8111	0
8112	0
8113	0
8114	0
8115	0
8116	0
8117	0
8118	0
8119	0
8120	0
8121	0
8122	0
8123	0
8124	0
8125	0
8126	0
8127	0
8128	0
8129	0
8130	0
8131	0
8132	0
8133	0
8134	0
8135	0
8136	0
8137	0
8138	0
8139	0
8140	0
8141	0
8142	0
8143	0
8144	0
8145	0
8146	0
8147	0
8148	0
8149	0
8150	0
8151	0
8152	0
8153	0
8154	0
8155	0
8156	0
8157	0
8158	0
8159	0
8160	0
8161	0
8162	0
8163	0
8164	0
8165	0
8166	0
8167	0
8168	0
8169	0
8170	0
8171	0
8172	0
8173	0
8174	0
8175	0
8176	0
8177	0
8178	0
8179	0
8180	0
8181	0
8182	0
8183	0
8184	0
8185	0
8186	0
8187	0
8188	0
8189	0
8190	0
8191	0
