0	0
1	0
2	0
3	0
4	0
5	0
6	0
7	0
8	0
9	0
10	0
11	0
12	0
13	0
14	0
15	0
16	0
17	0
18	0
19	0
20	0
21	0
22	0
23	0
24	0
25	0
26	0
27	0
28	0
29	0
30	0
31	0
32	0
33	0
34	0
35	0
36	0
37	0
38	0
39	0
40	0
41	0
42	0
43	0
44	0
45	0
46	0
47	0
48	0
49	0
50	0
51	0
52	0
53	0
54	0
55	0
56	0
57	0
58	0
59	0
60	0
61	0
62	0
63	0
64	0
65	0
66	0
67	0
68	0
69	0
70	0
71	0
72	0
73	0
74	0
75	0
76	0
77	0
78	0
79	0
80	0
81	0
82	0
83	0
84	0
85	0
86	0
87	0
88	0
89	0
90	0
91	0
92	0
93	0
94	0
95	0
96	0
97	0
98	0
99	0
100	0
101	0
102	0
103	0
104	0
105	0
106	0
107	0
108	0
109	0
110	0
111	0
112	0
113	0
114	0
115	0
116	0
117	1
118	143
119	479
120	776
121	919
122	922
123	914
124	918
125	877
126	859
127	845
128	862
129	861
130	821
131	812
132	722
133	753
134	760
135	757
136	727
137	716
138	699
139	718
140	676
141	679
142	634
143	650
144	640
145	642
146	616
147	662
148	630
149	568
150	622
151	601
152	586
153	574
154	579
155	621
156	556
157	532
158	623
159	528
160	555
161	564
162	526
163	533
164	456
165	534
166	561
167	481
168	528
169	486
170	477
171	515
172	483
173	493
174	479
175	508
176	478
177	489
178	468
179	485
180	493
181	470
182	491
183	493
184	468
185	483
186	441
187	527
188	562
189	492
190	476
191	435
192	469
193	443
194	480
195	438
196	430
197	432
198	422
199	415
200	425
201	413
202	415
203	385
204	418
205	477
206	466
207	481
208	395
209	431
210	421
211	448
212	461
213	438
214	451
215	387
216	435
217	463
218	431
219	476
220	422
221	449
222	442
223	476
224	468
225	428
226	439
227	449
228	437
229	511
230	631
231	706
232	712
233	632
234	546
235	496
236	492
237	522
238	523
239	624
240	600
241	568
242	545
243	465
244	517
245	501
246	478
247	535
248	505
249	501
250	519
251	532
252	538
253	529
254	535
255	521
256	494
257	580
258	532
259	550
260	576
261	700
262	638
263	591
264	587
265	584
266	650
267	684
268	661
269	619
270	490
271	534
272	543
273	536
274	537
275	538
276	509
277	561
278	521
279	556
280	557
281	585
282	568
283	603
284	613
285	571
286	607
287	648
288	561
289	598
290	547
291	577
292	605
293	685
294	676
295	639
296	569
297	617
298	601
299	627
300	633
301	632
302	627
303	573
304	665
305	818
306	1069
307	1247
308	1300
309	1104
310	854
311	674
312	635
313	631
314	593
315	548
316	573
317	559
318	540
319	596
320	518
321	593
322	622
323	635
324	653
325	614
326	564
327	535
328	599
329	559
330	569
331	594
332	645
333	600
334	610
335	578
336	602
337	597
338	606
339	603
340	617
341	607
342	561
343	565
344	613
345	605
346	566
347	556
348	585
349	606
350	613
351	602
352	651
353	647
354	607
355	639
356	605
357	632
358	615
359	646
360	646
361	638
362	615
363	616
364	588
365	623
366	646
367	579
368	605
369	605
370	605
371	616
372	597
373	610
374	579
375	660
376	592
377	597
378	568
379	622
380	635
381	663
382	608
383	612
384	582
385	585
386	619
387	616
388	577
389	576
390	599
391	605
392	587
393	651
394	624
395	603
396	572
397	640
398	599
399	652
400	633
401	671
402	618
403	625
404	619
405	614
406	616
407	624
408	563
409	565
410	631
411	585
412	619
413	599
414	598
415	603
416	580
417	609
418	602
419	637
420	584
421	614
422	570
423	602
424	541
425	606
426	586
427	619
428	649
429	623
430	655
431	707
432	616
433	556
434	645
435	578
436	606
437	604
438	630
439	647
440	732
441	665
442	638
443	655
444	564
445	565
446	614
447	561
448	591
449	591
450	608
451	557
452	526
453	585
454	572
455	591
456	540
457	575
458	552
459	589
460	545
461	578
462	568
463	607
464	543
465	589
466	564
467	563
468	589
469	559
470	525
471	546
472	600
473	542
474	545
475	536
476	540
477	510
478	568
479	603
480	590
481	588
482	557
483	571
484	505
485	517
486	552
487	560
488	561
489	550
490	566
491	549
492	607
493	525
494	529
495	542
496	559
497	543
498	535
499	555
500	530
501	580
502	543
503	535
504	542
505	529
506	506
507	519
508	491
509	564
510	538
511	492
512	499
513	512
514	529
515	549
516	480
517	493
518	537
519	572
520	513
521	567
522	578
523	547
524	463
525	536
526	487
527	556
528	508
529	514
530	527
531	496
532	513
533	526
534	465
535	497
536	491
537	499
538	496
539	493
540	526
541	527
542	495
543	508
544	503
545	509
546	618
547	830
548	980
549	1030
550	954
551	704
552	544
553	515
554	453
555	489
556	516
557	496
558	490
559	484
560	507
561	514
562	470
563	466
564	450
565	466
566	473
567	489
568	498
569	471
570	476
571	497
572	518
573	445
574	463
575	459
576	492
577	493
578	536
579	517
580	551
581	566
582	548
583	550
584	553
585	455
586	442
587	485
588	467
589	449
590	437
591	493
592	481
593	480
594	457
595	468
596	462
597	478
598	442
599	474
600	470
601	483
602	439
603	449
604	441
605	440
606	435
607	383
608	425
609	450
610	456
611	442
612	447
613	394
614	401
615	457
616	415
617	431
618	412
619	460
620	454
621	426
622	425
623	418
624	402
625	404
626	448
627	472
628	409
629	402
630	373
631	400
632	392
633	390
634	397
635	433
636	431
637	405
638	403
639	415
640	415
641	399
642	410
643	412
644	419
645	439
646	368
647	392
648	421
649	399
650	408
651	410
652	384
653	391
654	367
655	409
656	351
657	402
658	401
659	371
660	388
661	379
662	393
663	402
664	363
665	417
666	366
667	366
668	392
669	428
670	375
671	362
672	393
673	387
674	379
675	358
676	372
677	353
678	421
679	364
680	404
681	385
682	362
683	455
684	570
685	646
686	683
687	625
688	481
689	380
690	363
691	428
692	425
693	481
694	503
695	499
696	436
697	358
698	351
699	352
700	328
701	357
702	341
703	326
704	363
705	325
706	336
707	331
708	359
709	343
710	371
711	335
712	346
713	342
714	345
715	359
716	355
717	340
718	364
719	322
720	344
721	381
722	360
723	343
724	344
725	336
726	355
727	367
728	342
729	305
730	324
731	348
732	374
733	329
734	331
735	343
736	341
737	376
738	336
739	341
740	354
741	328
742	335
743	337
744	290
745	323
746	333
747	315
748	314
749	322
750	333
751	340
752	343
753	348
754	332
755	329
756	312
757	334
758	307
759	308
760	310
761	340
762	338
763	305
764	302
765	325
766	345
767	297
768	339
769	289
770	333
771	334
772	301
773	337
774	318
775	329
776	306
777	317
778	293
779	336
780	302
781	268
782	306
783	288
784	315
785	323
786	359
787	351
788	327
789	301
790	331
791	318
792	309
793	298
794	255
795	306
796	302
797	292
798	280
799	291
800	303
801	286
802	283
803	316
804	289
805	283
806	292
807	278
808	307
809	276
810	280
811	293
812	296
813	282
814	253
815	309
816	258
817	292
818	271
819	307
820	294
821	288
822	283
823	273
824	302
825	317
826	292
827	317
828	275
829	324
830	377
831	489
832	559
833	535
834	425
835	322
836	285
837	276
838	285
839	286
840	276
841	285
842	295
843	299
844	319
845	280
846	285
847	285
848	279
849	282
850	249
851	244
852	249
853	251
854	261
855	275
856	269
857	281
858	262
859	245
860	276
861	265
862	261
863	211
864	295
865	259
866	277
867	265
868	263
869	258
870	256
871	274
872	239
873	264
874	275
875	282
876	236
877	239
878	269
879	246
880	248
881	260
882	281
883	233
884	245
885	286
886	256
887	250
888	254
889	255
890	248
891	269
892	253
893	219
894	259
895	257
896	246
897	283
898	233
899	269
900	263
901	270
902	237
903	251
904	232
905	211
906	230
907	238
908	240
909	232
910	241
911	242
912	245
913	281
914	269
915	256
916	231
917	254
918	248
919	256
920	259
921	268
922	250
923	254
924	268
925	241
926	220
927	257
928	222
929	254
930	238
931	237
932	233
933	225
934	228
935	244
936	228
937	242
938	240
939	223
940	230
941	269
942	260
943	267
944	285
945	293
946	286
947	208
948	248
949	219
950	219
951	235
952	240
953	227
954	227
955	225
956	242
957	229
958	264
959	238
960	216
961	243
962	215
963	220
964	209
965	238
966	223
967	217
968	212
969	211
970	229
971	224
972	247
973	235
974	220
975	252
976	298
977	476
978	624
979	650
980	611
981	471
982	304
983	262
984	234
985	222
986	238
987	185
988	229
989	217
990	191
991	263
992	197
993	198
994	203
995	194
996	213
997	194
998	227
999	207
1000	233
1001	210
1002	220
1003	204
1004	204
1005	226
1006	181
1007	205
1008	175
1009	203
1010	194
1011	226
1012	206
1013	202
1014	189
1015	207
1016	211
1017	217
1018	190
1019	195
1020	223
1021	182
1022	206
1023	199
1024	210
1025	189
1026	212
1027	206
1028	210
1029	216
1030	227
1031	203
1032	200
1033	192
1034	210
1035	184
1036	193
1037	212
1038	184
1039	183
1040	168
1041	207
1042	214
1043	211
1044	196
1045	192
1046	172
1047	200
1048	185
1049	192
1050	220
1051	186
1052	200
1053	179
1054	218
1055	191
1056	179
1057	176
1058	195
1059	198
1060	201
1061	203
1062	194
1063	188
1064	178
1065	182
1066	201
1067	189
1068	179
1069	204
1070	190
1071	178
1072	196
1073	202
1074	195
1075	205
1076	181
1077	199
1078	203
1079	180
1080	187
1081	173
1082	180
1083	190
1084	176
1085	204
1086	186
1087	220
1088	190
1089	181
1090	184
1091	221
1092	201
1093	184
1094	156
1095	187
1096	177
1097	177
1098	173
1099	185
1100	159
1101	205
1102	172
1103	178
1104	187
1105	183
1106	186
1107	180
1108	180
1109	192
1110	201
1111	189
1112	179
1113	173
1114	182
1115	186
1116	183
1117	186
1118	188
1119	169
1120	153
1121	172
1122	164
1123	160
1124	173
1125	183
1126	160
1127	177
1128	188
1129	173
1130	179
1131	193
1132	168
1133	186
1134	153
1135	183
1136	183
1137	165
1138	173
1139	182
1140	206
1141	151
1142	153
1143	165
1144	188
1145	151
1146	198
1147	175
1148	175
1149	162
1150	169
1151	161
1152	165
1153	167
1154	172
1155	171
1156	173
1157	179
1158	158
1159	160
1160	148
1161	161
1162	185
1163	165
1164	169
1165	179
1166	161
1167	158
1168	159
1169	142
1170	181
1171	145
1172	170
1173	166
1174	177
1175	152
1176	157
1177	185
1178	166
1179	160
1180	140
1181	162
1182	159
1183	182
1184	156
1185	148
1186	159
1187	156
1188	162
1189	159
1190	142
1191	170
1192	179
1193	163
1194	155
1195	155
1196	160
1197	151
1198	137
1199	152
1200	163
1201	133
1202	172
1203	171
1204	144
1205	147
1206	148
1207	176
1208	146
1209	138
1210	164
1211	158
1212	129
1213	155
1214	134
1215	140
1216	161
1217	147
1218	157
1219	152
1220	154
1221	160
1222	164
1223	150
1224	142
1225	131
1226	159
1227	147
1228	165
1229	148
1230	124
1231	170
1232	126
1233	170
1234	158
1235	147
1236	176
1237	144
1238	165
1239	156
1240	139
1241	129
1242	143
1243	119
1244	154
1245	155
1246	143
1247	153
1248	146
1249	160
1250	157
1251	155
1252	165
1253	162
1254	143
1255	144
1256	151
1257	164
1258	149
1259	130
1260	140
1261	160
1262	155
1263	150
1264	166
1265	151
1266	151
1267	177
1268	155
1269	150
1270	130
1271	150
1272	159
1273	149
1274	141
1275	122
1276	132
1277	118
1278	132
1279	153
1280	155
1281	145
1282	147
1283	123
1284	149
1285	138
1286	157
1287	130
1288	120
1289	145
1290	130
1291	124
1292	116
1293	134
1294	132
1295	138
1296	144
1297	130
1298	138
1299	146
1300	141
1301	141
1302	166
1303	147
1304	145
1305	135
1306	145
1307	135
1308	145
1309	144
1310	131
1311	115
1312	146
1313	136
1314	139
1315	136
1316	139
1317	132
1318	132
1319	139
1320	157
1321	165
1322	141
1323	121
1324	126
1325	123
1326	138
1327	126
1328	131
1329	141
1330	148
1331	129
1332	157
1333	121
1334	155
1335	147
1336	138
1337	132
1338	149
1339	131
1340	116
1341	134
1342	135
1343	125
1344	124
1345	141
1346	131
1347	120
1348	122
1349	142
1350	146
1351	115
1352	124
1353	120
1354	111
1355	126
1356	141
1357	137
1358	144
1359	131
1360	120
1361	138
1362	149
1363	127
1364	124
1365	122
1366	137
1367	136
1368	126
1369	120
1370	137
1371	99
1372	106
1373	125
1374	133
1375	129
1376	149
1377	128
1378	126
1379	127
1380	140
1381	152
1382	172
1383	175
1384	173
1385	243
1386	327
1387	392
1388	541
1389	684
1390	857
1391	777
1392	694
1393	662
1394	435
1395	359
1396	288
1397	209
1398	179
1399	155
1400	164
1401	135
1402	116
1403	167
1404	106
1405	115
1406	108
1407	118
1408	122
1409	140
1410	98
1411	97
1412	104
1413	136
1414	105
1415	99
1416	103
1417	116
1418	111
1419	112
1420	115
1421	114
1422	119
1423	113
1424	128
1425	115
1426	92
1427	106
1428	111
1429	103
1430	130
1431	117
1432	112
1433	122
1434	107
1435	114
1436	124
1437	103
1438	125
1439	105
1440	133
1441	133
1442	113
1443	107
1444	121
1445	106
1446	110
1447	118
1448	118
1449	119
1450	97
1451	133
1452	94
1453	98
1454	119
1455	100
1456	102
1457	124
1458	119
1459	111
1460	156
1461	143
1462	113
1463	120
1464	116
1465	121
1466	116
1467	114
1468	103
1469	109
1470	105
1471	97
1472	100
1473	135
1474	111
1475	108
1476	112
1477	116
1478	116
1479	114
1480	114
1481	113
1482	110
1483	102
1484	98
1485	121
1486	102
1487	115
1488	118
1489	102
1490	112
1491	94
1492	124
1493	107
1494	111
1495	106
1496	115
1497	105
1498	101
1499	109
1500	91
1501	114
1502	106
1503	103
1504	96
1505	103
1506	116
1507	97
1508	104
1509	111
1510	111
1511	119
1512	94
1513	113
1514	97
1515	119
1516	102
1517	96
1518	89
1519	110
1520	96
1521	108
1522	113
1523	117
1524	118
1525	107
1526	112
1527	119
1528	104
1529	117
1530	132
1531	117
1532	134
1533	119
1534	115
1535	103
1536	102
1537	110
1538	120
1539	125
1540	112
1541	138
1542	133
1543	149
1544	132
1545	122
1546	114
1547	122
1548	93
1549	101
1550	107
1551	112
1552	109
1553	105
1554	107
1555	91
1556	121
1557	128
1558	117
1559	110
1560	119
1561	112
1562	124
1563	105
1564	111
1565	100
1566	107
1567	106
1568	107
1569	117
1570	97
1571	119
1572	113
1573	120
1574	131
1575	175
1576	217
1577	251
1578	250
1579	246
1580	207
1581	152
1582	136
1583	120
1584	104
1585	108
1586	100
1587	113
1588	115
1589	82
1590	91
1591	102
1592	99
1593	94
1594	122
1595	103
1596	92
1597	96
1598	90
1599	101
1600	94
1601	110
1602	93
1603	89
1604	100
1605	85
1606	96
1607	106
1608	91
1609	118
1610	113
1611	145
1612	147
1613	137
1614	125
1615	144
1616	164
1617	133
1618	139
1619	112
1620	130
1621	150
1622	128
1623	134
1624	138
1625	143
1626	143
1627	166
1628	133
1629	116
1630	136
1631	116
1632	130
1633	123
1634	122
1635	125
1636	123
1637	110
1638	117
1639	118
1640	113
1641	153
1642	212
1643	303
1644	389
1645	529
1646	515
1647	409
1648	281
1649	177
1650	147
1651	128
1652	105
1653	106
1654	97
1655	109
1656	103
1657	120
1658	109
1659	100
1660	99
1661	97
1662	92
1663	102
1664	84
1665	101
1666	97
1667	88
1668	107
1669	104
1670	94
1671	98
1672	100
1673	98
1674	97
1675	93
1676	118
1677	111
1678	109
1679	102
1680	115
1681	82
1682	94
1683	110
1684	100
1685	95
1686	104
1687	111
1688	70
1689	99
1690	101
1691	108
1692	95
1693	106
1694	109
1695	104
1696	114
1697	107
1698	103
1699	84
1700	102
1701	81
1702	108
1703	87
1704	92
1705	106
1706	103
1707	85
1708	91
1709	100
1710	82
1711	76
1712	97
1713	93
1714	90
1715	92
1716	76
1717	88
1718	70
1719	77
1720	91
1721	98
1722	75
1723	84
1724	101
1725	87
1726	94
1727	85
1728	89
1729	83
1730	91
1731	82
1732	68
1733	93
1734	94
1735	89
1736	90
1737	88
1738	83
1739	90
1740	79
1741	107
1742	89
1743	86
1744	90
1745	86
1746	91
1747	88
1748	81
1749	83
1750	89
1751	82
1752	70
1753	72
1754	75
1755	85
1756	69
1757	83
1758	88
1759	99
1760	95
1761	82
1762	76
1763	75
1764	86
1765	88
1766	100
1767	90
1768	86
1769	90
1770	74
1771	71
1772	61
1773	103
1774	78
1775	79
1776	75
1777	93
1778	91
1779	92
1780	74
1781	87
1782	88
1783	79
1784	83
1785	107
1786	103
1787	100
1788	84
1789	96
1790	77
1791	114
1792	80
1793	91
1794	103
1795	69
1796	88
1797	80
1798	88
1799	87
1800	91
1801	100
1802	78
1803	72
1804	91
1805	82
1806	93
1807	88
1808	87
1809	95
1810	101
1811	72
1812	78
1813	96
1814	84
1815	74
1816	96
1817	96
1818	76
1819	79
1820	78
1821	84
1822	80
1823	101
1824	61
1825	95
1826	80
1827	68
1828	69
1829	77
1830	88
1831	61
1832	96
1833	71
1834	72
1835	80
1836	66
1837	75
1838	76
1839	84
1840	89
1841	70
1842	70
1843	76
1844	87
1845	68
1846	78
1847	79
1848	74
1849	88
1850	72
1851	78
1852	74
1853	67
1854	82
1855	93
1856	92
1857	71
1858	81
1859	91
1860	96
1861	91
1862	91
1863	106
1864	120
1865	104
1866	112
1867	97
1868	110
1869	98
1870	100
1871	108
1872	109
1873	97
1874	113
1875	93
1876	100
1877	82
1878	105
1879	95
1880	89
1881	89
1882	84
1883	116
1884	103
1885	88
1886	92
1887	101
1888	99
1889	81
1890	107
1891	98
1892	94
1893	98
1894	104
1895	91
1896	87
1897	77
1898	93
1899	88
1900	94
1901	95
1902	103
1903	95
1904	95
1905	96
1906	86
1907	83
1908	93
1909	85
1910	55
1911	89
1912	87
1913	76
1914	81
1915	96
1916	88
1917	94
1918	80
1919	79
1920	75
1921	74
1922	77
1923	74
1924	82
1925	75
1926	49
1927	79
1928	74
1929	94
1930	82
1931	91
1932	91
1933	77
1934	84
1935	71
1936	80
1937	88
1938	69
1939	70
1940	70
1941	71
1942	69
1943	70
1944	87
1945	88
1946	78
1947	75
1948	89
1949	87
1950	107
1951	101
1952	110
1953	94
1954	91
1955	72
1956	79
1957	65
1958	75
1959	70
1960	77
1961	84
1962	67
1963	68
1964	83
1965	59
1966	79
1967	76
1968	66
1969	67
1970	73
1971	78
1972	79
1973	65
1974	83
1975	68
1976	77
1977	77
1978	77
1979	88
1980	81
1981	81
1982	66
1983	78
1984	69
1985	81
1986	76
1987	71
1988	76
1989	79
1990	80
1991	85
1992	77
1993	85
1994	84
1995	72
1996	70
1997	74
1998	78
1999	77
2000	55
2001	69
2002	81
2003	76
2004	71
2005	70
2006	62
2007	82
2008	71
2009	62
2010	56
2011	58
2012	57
2013	76
2014	66
2015	55
2016	67
2017	69
2018	63
2019	74
2020	66
2021	53
2022	75
2023	68
2024	79
2025	69
2026	76
2027	75
2028	65
2029	68
2030	77
2031	73
2032	56
2033	77
2034	61
2035	76
2036	58
2037	70
2038	53
2039	57
2040	68
2041	62
2042	63
2043	77
2044	85
2045	82
2046	76
2047	70
2048	62
2049	85
2050	76
2051	85
2052	88
2053	74
2054	95
2055	79
2056	104
2057	119
2058	89
2059	82
2060	103
2061	93
2062	83
2063	71
2064	63
2065	70
2066	74
2067	69
2068	69
2069	79
2070	66
2071	77
2072	83
2073	59
2074	63
2075	58
2076	82
2077	66
2078	63
2079	56
2080	56
2081	68
2082	83
2083	75
2084	71
2085	75
2086	63
2087	65
2088	58
2089	65
2090	64
2091	51
2092	58
2093	73
2094	61
2095	69
2096	79
2097	62
2098	53
2099	64
2100	55
2101	74
2102	76
2103	62
2104	88
2105	80
2106	68
2107	75
2108	67
2109	68
2110	71
2111	65
2112	69
2113	57
2114	51
2115	66
2116	76
2117	66
2118	64
2119	56
2120	51
2121	51
2122	59
2123	80
2124	64
2125	73
2126	72
2127	77
2128	75
2129	68
2130	65
2131	55
2132	77
2133	58
2134	59
2135	53
2136	64
2137	64
2138	72
2139	54
2140	82
2141	62
2142	75
2143	57
2144	80
2145	78
2146	100
2147	105
2148	100
2149	100
2150	71
2151	85
2152	69
2153	69
2154	64
2155	67
2156	63
2157	87
2158	57
2159	65
2160	68
2161	66
2162	53
2163	63
2164	65
2165	68
2166	57
2167	75
2168	56
2169	63
2170	61
2171	62
2172	55
2173	60
2174	54
2175	61
2176	66
2177	59
2178	60
2179	69
2180	63
2181	63
2182	63
2183	58
2184	61
2185	51
2186	66
2187	67
2188	62
2189	44
2190	57
2191	56
2192	65
2193	48
2194	46
2195	69
2196	68
2197	56
2198	58
2199	58
2200	57
2201	50
2202	55
2203	49
2204	67
2205	57
2206	68
2207	60
2208	48
2209	59
2210	52
2211	60
2212	51
2213	54
2214	65
2215	65
2216	77
2217	64
2218	50
2219	62
2220	57
2221	64
2222	67
2223	62
2224	65
2225	64
2226	76
2227	59
2228	70
2229	73
2230	81
2231	81
2232	71
2233	80
2234	58
2235	80
2236	64
2237	62
2238	80
2239	62
2240	61
2241	67
2242	93
2243	63
2244	74
2245	58
2246	75
2247	62
2248	75
2249	62
2250	60
2251	62
2252	83
2253	75
2254	61
2255	92
2256	65
2257	90
2258	60
2259	70
2260	71
2261	80
2262	56
2263	63
2264	67
2265	62
2266	62
2267	57
2268	47
2269	63
2270	69
2271	73
2272	62
2273	60
2274	65
2275	85
2276	54
2277	67
2278	54
2279	67
2280	69
2281	61
2282	66
2283	62
2284	71
2285	51
2286	60
2287	54
2288	57
2289	71
2290	49
2291	68
2292	58
2293	78
2294	78
2295	93
2296	82
2297	93
2298	80
2299	84
2300	68
2301	57
2302	57
2303	61
2304	63
2305	61
2306	62
2307	62
2308	59
2309	59
2310	60
2311	48
2312	60
2313	54
2314	74
2315	71
2316	63
2317	67
2318	51
2319	61
2320	62
2321	53
2322	53
2323	61
2324	51
2325	59
2326	63
2327	53
2328	54
2329	60
2330	65
2331	56
2332	52
2333	56
2334	62
2335	61
2336	54
2337	63
2338	55
2339	46
2340	44
2341	41
2342	56
2343	66
2344	60
2345	55
2346	44
2347	54
2348	73
2349	66
2350	77
2351	69
2352	64
2353	75
2354	54
2355	51
2356	70
2357	55
2358	59
2359	46
2360	53
2361	50
2362	60
2363	69
2364	53
2365	56
2366	64
2367	56
2368	58
2369	43
2370	50
2371	53
2372	51
2373	39
2374	46
2375	55
2376	50
2377	51
2378	54
2379	44
2380	64
2381	64
2382	55
2383	56
2384	55
2385	41
2386	58
2387	42
2388	61
2389	55
2390	58
2391	74
2392	64
2393	69
2394	55
2395	79
2396	65
2397	59
2398	66
2399	60
2400	54
2401	54
2402	49
2403	50
2404	44
2405	52
2406	60
2407	55
2408	45
2409	61
2410	50
2411	50
2412	54
2413	48
2414	59
2415	59
2416	53
2417	50
2418	41
2419	49
2420	48
2421	47
2422	65
2423	52
2424	74
2425	104
2426	128
2427	167
2428	181
2429	177
2430	134
2431	92
2432	67
2433	69
2434	58
2435	57
2436	52
2437	49
2438	54
2439	52
2440	44
2441	69
2442	43
2443	59
2444	49
2445	49
2446	60
2447	57
2448	54
2449	44
2450	52
2451	50
2452	55
2453	52
2454	55
2455	52
2456	45
2457	48
2458	54
2459	39
2460	45
2461	60
2462	61
2463	45
2464	54
2465	51
2466	55
2467	59
2468	52
2469	44
2470	54
2471	56
2472	46
2473	44
2474	64
2475	62
2476	55
2477	40
2478	43
2479	49
2480	47
2481	58
2482	47
2483	54
2484	59
2485	73
2486	53
2487	78
2488	78
2489	68
2490	61
2491	52
2492	55
2493	48
2494	63
2495	45
2496	47
2497	67
2498	47
2499	61
2500	40
2501	48
2502	45
2503	51
2504	56
2505	57
2506	56
2507	55
2508	49
2509	56
2510	42
2511	51
2512	59
2513	42
2514	44
2515	50
2516	52
2517	46
2518	43
2519	45
2520	40
2521	48
2522	51
2523	40
2524	52
2525	57
2526	55
2527	44
2528	39
2529	52
2530	52
2531	48
2532	46
2533	56
2534	41
2535	47
2536	44
2537	47
2538	39
2539	55
2540	37
2541	57
2542	41
2543	55
2544	52
2545	58
2546	49
2547	48
2548	41
2549	52
2550	54
2551	50
2552	60
2553	51
2554	53
2555	43
2556	52
2557	67
2558	71
2559	62
2560	56
2561	76
2562	56
2563	63
2564	58
2565	77
2566	58
2567	73
2568	70
2569	64
2570	47
2571	42
2572	28
2573	47
2574	68
2575	90
2576	97
2577	105
2578	120
2579	111
2580	94
2581	73
2582	59
2583	51
2584	48
2585	53
2586	44
2587	49
2588	40
2589	41
2590	44
2591	50
2592	56
2593	46
2594	40
2595	51
2596	39
2597	47
2598	62
2599	46
2600	52
2601	46
2602	53
2603	45
2604	53
2605	53
2606	47
2607	38
2608	49
2609	44
2610	51
2611	40
2612	41
2613	53
2614	36
2615	44
2616	43
2617	50
2618	43
2619	36
2620	43
2621	44
2622	45
2623	41
2624	52
2625	49
2626	49
2627	43
2628	47
2629	50
2630	59
2631	50
2632	57
2633	35
2634	43
2635	50
2636	38
2637	53
2638	42
2639	42
2640	46
2641	51
2642	42
2643	38
2644	44
2645	41
2646	36
2647	36
2648	52
2649	41
2650	52
2651	51
2652	41
2653	48
2654	51
2655	46
2656	45
2657	49
2658	63
2659	62
2660	83
2661	80
2662	75
2663	67
2664	51
2665	45
2666	61
2667	36
2668	48
2669	48
2670	51
2671	36
2672	49
2673	50
2674	39
2675	53
2676	33
2677	46
2678	36
2679	37
2680	51
2681	45
2682	39
2683	42
2684	44
2685	33
2686	35
2687	34
2688	58
2689	53
2690	29
2691	47
2692	46
2693	43
2694	45
2695	56
2696	54
2697	50
2698	47
2699	58
2700	31
2701	45
2702	33
2703	51
2704	48
2705	42
2706	33
2707	48
2708	44
2709	41
2710	45
2711	54
2712	46
2713	38
2714	48
2715	38
2716	47
2717	36
2718	47
2719	39
2720	42
2721	45
2722	43
2723	41
2724	37
2725	49
2726	46
2727	45
2728	38
2729	44
2730	52
2731	38
2732	32
2733	42
2734	38
2735	55
2736	42
2737	28
2738	47
2739	43
2740	37
2741	43
2742	44
2743	35
2744	35
2745	46
2746	45
2747	43
2748	40
2749	50
2750	32
2751	39
2752	40
2753	38
2754	31
2755	41
2756	49
2757	41
2758	39
2759	40
2760	52
2761	39
2762	58
2763	42
2764	34
2765	46
2766	43
2767	41
2768	47
2769	36
2770	62
2771	39
2772	44
2773	42
2774	37
2775	40
2776	36
2777	41
2778	43
2779	40
2780	49
2781	37
2782	35
2783	48
2784	35
2785	52
2786	43
2787	40
2788	38
2789	48
2790	48
2791	46
2792	35
2793	63
2794	52
2795	48
2796	47
2797	48
2798	42
2799	38
2800	35
2801	41
2802	41
2803	34
2804	48
2805	39
2806	45
2807	34
2808	42
2809	41
2810	34
2811	38
2812	47
2813	54
2814	41
2815	44
2816	40
2817	38
2818	34
2819	41
2820	46
2821	49
2822	41
2823	35
2824	50
2825	38
2826	44
2827	39
2828	50
2829	39
2830	53
2831	33
2832	46
2833	42
2834	34
2835	53
2836	42
2837	45
2838	37
2839	42
2840	28
2841	26
2842	36
2843	37
2844	47
2845	38
2846	40
2847	40
2848	41
2849	45
2850	56
2851	36
2852	46
2853	44
2854	36
2855	24
2856	42
2857	35
2858	27
2859	42
2860	37
2861	47
2862	45
2863	43
2864	36
2865	42
2866	36
2867	44
2868	36
2869	32
2870	51
2871	41
2872	41
2873	47
2874	52
2875	42
2876	32
2877	27
2878	42
2879	32
2880	32
2881	39
2882	37
2883	43
2884	46
2885	33
2886	35
2887	46
2888	38
2889	35
2890	41
2891	44
2892	43
2893	36
2894	35
2895	52
2896	33
2897	39
2898	27
2899	43
2900	43
2901	40
2902	37
2903	55
2904	51
2905	34
2906	33
2907	43
2908	45
2909	32
2910	35
2911	37
2912	40
2913	37
2914	45
2915	46
2916	42
2917	43
2918	29
2919	56
2920	30
2921	45
2922	48
2923	37
2924	42
2925	32
2926	33
2927	48
2928	47
2929	38
2930	37
2931	35
2932	34
2933	39
2934	41
2935	51
2936	35
2937	43
2938	44
2939	37
2940	40
2941	34
2942	30
2943	40
2944	45
2945	38
2946	31
2947	43
2948	27
2949	38
2950	45
2951	42
2952	39
2953	34
2954	36
2955	37
2956	44
2957	34
2958	49
2959	39
2960	28
2961	47
2962	42
2963	51
2964	39
2965	46
2966	62
2967	76
2968	123
2969	126
2970	160
2971	125
2972	105
2973	89
2974	54
2975	52
2976	36
2977	34
2978	29
2979	36
2980	43
2981	36
2982	35
2983	39
2984	31
2985	42
2986	31
2987	34
2988	39
2989	37
2990	48
2991	37
2992	41
2993	25
2994	35
2995	35
2996	46
2997	29
2998	42
2999	35
3000	36
3001	37
3002	28
3003	37
3004	47
3005	46
3006	37
3007	41
3008	26
3009	43
3010	30
3011	29
3012	47
3013	41
3014	47
3015	32
3016	35
3017	33
3018	37
3019	35
3020	38
3021	47
3022	36
3023	33
3024	37
3025	39
3026	35
3027	36
3028	46
3029	45
3030	38
3031	35
3032	30
3033	45
3034	38
3035	43
3036	26
3037	43
3038	33
3039	34
3040	38
3041	31
3042	33
3043	22
3044	33
3045	39
3046	28
3047	35
3048	32
3049	44
3050	36
3051	38
3052	37
3053	35
3054	37
3055	33
3056	39
3057	46
3058	42
3059	42
3060	56
3061	41
3062	44
3063	36
3064	26
3065	38
3066	40
3067	43
3068	30
3069	36
3070	35
3071	36
3072	28
3073	47
3074	32
3075	35
3076	35
3077	43
3078	36
3079	43
3080	39
3081	31
3082	42
3083	29
3084	42
3085	47
3086	29
3087	34
3088	34
3089	26
3090	24
3091	36
3092	34
3093	32
3094	34
3095	42
3096	34
3097	39
3098	36
3099	35
3100	37
3101	39
3102	43
3103	37
3104	55
3105	41
3106	42
3107	30
3108	50
3109	25
3110	32
3111	25
3112	39
3113	40
3114	36
3115	42
3116	31
3117	44
3118	36
3119	31
3120	24
3121	36
3122	28
3123	36
3124	30
3125	40
3126	42
3127	36
3128	41
3129	32
3130	38
3131	40
3132	37
3133	33
3134	40
3135	31
3136	38
3137	45
3138	32
3139	42
3140	38
3141	37
3142	33
3143	24
3144	29
3145	27
3146	39
3147	32
3148	35
3149	27
3150	20
3151	27
3152	41
3153	44
3154	30
3155	37
3156	39
3157	36
3158	38
3159	36
3160	33
3161	36
3162	25
3163	28
3164	31
3165	43
3166	38
3167	33
3168	30
3169	32
3170	37
3171	39
3172	35
3173	31
3174	23
3175	35
3176	36
3177	41
3178	35
3179	26
3180	30
3181	32
3182	33
3183	37
3184	42
3185	18
3186	35
3187	34
3188	43
3189	33
3190	22
3191	27
3192	26
3193	38
3194	36
3195	35
3196	40
3197	41
3198	39
3199	29
3200	33
3201	34
3202	31
3203	41
3204	45
3205	28
3206	32
3207	43
3208	39
3209	28
3210	42
3211	34
3212	51
3213	39
3214	45
3215	28
3216	37
3217	34
3218	42
3219	34
3220	35
3221	37
3222	31
3223	34
3224	35
3225	36
3226	34
3227	30
3228	36
3229	32
3230	28
3231	39
3232	33
3233	41
3234	29
3235	28
3236	41
3237	40
3238	33
3239	39
3240	43
3241	30
3242	42
3243	30
3244	28
3245	41
3246	27
3247	38
3248	35
3249	40
3250	32
3251	33
3252	48
3253	33
3254	42
3255	33
3256	35
3257	34
3258	45
3259	33
3260	44
3261	50
3262	34
3263	24
3264	32
3265	54
3266	34
3267	29
3268	28
3269	28
3270	41
3271	36
3272	50
3273	59
3274	59
3275	67
3276	72
3277	54
3278	63
3279	48
3280	45
3281	37
3282	34
3283	29
3284	35
3285	37
3286	40
3287	33
3288	31
3289	24
3290	32
3291	39
3292	25
3293	37
3294	29
3295	26
3296	38
3297	32
3298	28
3299	27
3300	40
3301	36
3302	33
3303	28
3304	33
3305	30
3306	31
3307	36
3308	26
3309	30
3310	34
3311	26
3312	30
3313	25
3314	38
3315	39
3316	35
3317	28
3318	31
3319	38
3320	33
3321	40
3322	39
3323	34
3324	40
3325	29
3326	31
3327	33
3328	42
3329	28
3330	36
3331	31
3332	27
3333	27
3334	37
3335	22
3336	29
3337	27
3338	26
3339	27
3340	29
3341	38
3342	35
3343	34
3344	33
3345	27
3346	28
3347	22
3348	32
3349	27
3350	34
3351	31
3352	39
3353	34
3354	27
3355	37
3356	29
3357	35
3358	40
3359	32
3360	30
3361	34
3362	29
3363	23
3364	33
3365	25
3366	33
3367	30
3368	36
3369	38
3370	36
3371	41
3372	32
3373	31
3374	24
3375	28
3376	29
3377	22
3378	26
3379	35
3380	31
3381	22
3382	32
3383	28
3384	34
3385	56
3386	39
3387	41
3388	40
3389	39
3390	32
3391	28
3392	29
3393	30
3394	35
3395	28
3396	31
3397	36
3398	33
3399	35
3400	20
3401	37
3402	27
3403	26
3404	33
3405	27
3406	35
3407	22
3408	31
3409	29
3410	33
3411	31
3412	28
3413	34
3414	30
3415	30
3416	33
3417	37
3418	35
3419	39
3420	31
3421	25
3422	30
3423	22
3424	33
3425	23
3426	34
3427	39
3428	42
3429	34
3430	31
3431	22
3432	42
3433	32
3434	25
3435	29
3436	29
3437	31
3438	31
3439	33
3440	33
3441	26
3442	33
3443	35
3444	38
3445	33
3446	28
3447	30
3448	22
3449	30
3450	28
3451	36
3452	33
3453	17
3454	32
3455	34
3456	33
3457	43
3458	34
3459	26
3460	29
3461	33
3462	35
3463	27
3464	25
3465	28
3466	27
3467	25
3468	27
3469	27
3470	27
3471	29
3472	38
3473	34
3474	31
3475	39
3476	38
3477	22
3478	25
3479	24
3480	23
3481	27
3482	32
3483	18
3484	26
3485	27
3486	28
3487	26
3488	23
3489	24
3490	23
3491	28
3492	29
3493	21
3494	37
3495	27
3496	22
3497	25
3498	26
3499	23
3500	38
3501	24
3502	30
3503	27
3504	22
3505	35
3506	38
3507	25
3508	25
3509	30
3510	21
3511	25
3512	30
3513	20
3514	26
3515	22
3516	28
3517	28
3518	33
3519	31
3520	29
3521	43
3522	28
3523	25
3524	35
3525	27
3526	35
3527	39
3528	27
3529	29
3530	34
3531	27
3532	28
3533	28
3534	20
3535	26
3536	30
3537	29
3538	24
3539	30
3540	26
3541	31
3542	25
3543	30
3544	32
3545	32
3546	19
3547	33
3548	28
3549	33
3550	36
3551	30
3552	22
3553	33
3554	34
3555	26
3556	20
3557	15
3558	27
3559	21
3560	19
3561	36
3562	31
3563	27
3564	27
3565	32
3566	24
3567	27
3568	27
3569	15
3570	29
3571	28
3572	19
3573	28
3574	29
3575	24
3576	23
3577	32
3578	21
3579	35
3580	20
3581	22
3582	14
3583	26
3584	21
3585	34
3586	30
3587	31
3588	22
3589	26
3590	22
3591	31
3592	21
3593	34
3594	16
3595	38
3596	32
3597	28
3598	26
3599	25
3600	19
3601	25
3602	27
3603	32
3604	23
3605	30
3606	30
3607	28
3608	27
3609	28
3610	23
3611	30
3612	32
3613	27
3614	18
3615	28
3616	32
3617	26
3618	19
3619	22
3620	21
3621	22
3622	30
3623	18
3624	27
3625	22
3626	31
3627	22
3628	33
3629	26
3630	30
3631	31
3632	24
3633	49
3634	34
3635	40
3636	57
3637	47
3638	47
3639	53
3640	40
3641	28
3642	25
3643	27
3644	30
3645	33
3646	28
3647	24
3648	27
3649	23
3650	37
3651	19
3652	24
3653	27
3654	26
3655	25
3656	28
3657	35
3658	27
3659	28
3660	37
3661	26
3662	20
3663	20
3664	31
3665	28
3666	35
3667	35
3668	22
3669	16
3670	25
3671	27
3672	14
3673	19
3674	20
3675	23
3676	27
3677	21
3678	25
3679	24
3680	29
3681	26
3682	36
3683	33
3684	23
3685	34
3686	32
3687	22
3688	41
3689	29
3690	26
3691	18
3692	34
3693	32
3694	29
3695	26
3696	37
3697	36
3698	36
3699	28
3700	37
3701	29
3702	25
3703	27
3704	31
3705	17
3706	24
3707	23
3708	31
3709	28
3710	24
3711	26
3712	26
3713	38
3714	33
3715	44
3716	39
3717	34
3718	37
3719	36
3720	22
3721	24
3722	29
3723	25
3724	24
3725	36
3726	31
3727	16
3728	19
3729	21
3730	33
3731	18
3732	27
3733	26
3734	18
3735	21
3736	33
3737	30
3738	22
3739	29
3740	17
3741	17
3742	20
3743	31
3744	29
3745	24
3746	25
3747	25
3748	29
3749	18
3750	26
3751	26
3752	28
3753	25
3754	27
3755	20
3756	24
3757	30
3758	19
3759	23
3760	23
3761	24
3762	34
3763	22
3764	23
3765	23
3766	17
3767	20
3768	21
3769	20
3770	22
3771	34
3772	21
3773	25
3774	25
3775	18
3776	23
3777	27
3778	23
3779	18
3780	28
3781	20
3782	29
3783	21
3784	31
3785	35
3786	27
3787	25
3788	21
3789	33
3790	16
3791	18
3792	20
3793	31
3794	20
3795	30
3796	27
3797	37
3798	22
3799	17
3800	19
3801	22
3802	24
3803	23
3804	29
3805	29
3806	18
3807	31
3808	27
3809	30
3810	21
3811	19
3812	18
3813	17
3814	25
3815	14
3816	31
3817	26
3818	16
3819	27
3820	25
3821	23
3822	23
3823	27
3824	23
3825	18
3826	27
3827	24
3828	19
3829	23
3830	23
3831	21
3832	24
3833	22
3834	16
3835	27
3836	33
3837	24
3838	23
3839	25
3840	26
3841	17
3842	26
3843	31
3844	28
3845	35
3846	36
3847	41
3848	67
3849	120
3850	174
3851	240
3852	251
3853	225
3854	173
3855	111
3856	69
3857	60
3858	25
3859	27
3860	30
3861	24
3862	18
3863	19
3864	23
3865	28
3866	23
3867	26
3868	29
3869	20
3870	21
3871	23
3872	16
3873	26
3874	19
3875	23
3876	14
3877	26
3878	29
3879	15
3880	25
3881	26
3882	23
3883	22
3884	21
3885	16
3886	26
3887	16
3888	31
3889	18
3890	25
3891	19
3892	14
3893	22
3894	23
3895	20
3896	29
3897	21
3898	33
3899	25
3900	19
3901	23
3902	26
3903	18
3904	34
3905	31
3906	21
3907	24
3908	22
3909	24
3910	22
3911	18
3912	15
3913	20
3914	27
3915	16
3916	24
3917	31
3918	17
3919	24
3920	25
3921	13
3922	26
3923	17
3924	26
3925	15
3926	26
3927	22
3928	26
3929	26
3930	26
3931	20
3932	27
3933	22
3934	18
3935	18
3936	22
3937	22
3938	19
3939	23
3940	20
3941	21
3942	26
3943	22
3944	23
3945	32
3946	25
3947	26
3948	22
3949	20
3950	13
3951	13
3952	24
3953	20
3954	27
3955	26
3956	30
3957	19
3958	23
3959	26
3960	20
3961	21
3962	22
3963	16
3964	29
3965	27
3966	21
3967	25
3968	20
3969	19
3970	26
3971	24
3972	24
3973	18
3974	27
3975	26
3976	32
3977	36
3978	26
3979	34
3980	30
3981	26
3982	22
3983	29
3984	22
3985	29
3986	18
3987	29
3988	29
3989	11
3990	22
3991	20
3992	14
3993	18
3994	24
3995	11
3996	19
3997	25
3998	22
3999	27
4000	16
4001	19
4002	17
4003	13
4004	18
4005	19
4006	27
4007	18
4008	13
4009	22
4010	16
4011	22
4012	13
4013	15
4014	18
4015	20
4016	18
4017	11
4018	18
4019	22
4020	27
4021	29
4022	18
4023	20
4024	15
4025	17
4026	24
4027	14
4028	22
4029	23
4030	20
4031	26
4032	24
4033	27
4034	17
4035	29
4036	22
4037	20
4038	26
4039	28
4040	18
4041	26
4042	25
4043	17
4044	20
4045	17
4046	16
4047	23
4048	22
4049	25
4050	21
4051	16
4052	28
4053	23
4054	25
4055	30
4056	31
4057	18
4058	26
4059	18
4060	14
4061	21
4062	15
4063	17
4064	22
4065	22
4066	23
4067	22
4068	13
4069	13
4070	24
4071	23
4072	25
4073	16
4074	18
4075	19
4076	25
4077	15
4078	15
4079	17
4080	16
4081	22
4082	22
4083	24
4084	11
4085	21
4086	15
4087	18
4088	21
4089	27
4090	17
4091	17
4092	22
4093	21
4094	26
4095	8
4096	20
4097	14
4098	20
4099	19
4100	16
4101	22
4102	28
4103	24
4104	36
4105	17
4106	18
4107	22
4108	30
4109	23
4110	20
4111	22
4112	20
4113	16
4114	24
4115	34
4116	10
4117	16
4118	20
4119	15
4120	21
4121	17
4122	15
4123	11
4124	16
4125	18
4126	29
4127	19
4128	23
4129	19
4130	19
4131	23
4132	15
4133	8
4134	18
4135	20
4136	21
4137	22
4138	24
4139	19
4140	19
4141	23
4142	15
4143	26
4144	23
4145	21
4146	23
4147	11
4148	14
4149	19
4150	16
4151	22
4152	18
4153	15
4154	11
4155	16
4156	20
4157	23
4158	24
4159	24
4160	21
4161	20
4162	23
4163	25
4164	23
4165	23
4166	17
4167	18
4168	26
4169	30
4170	25
4171	16
4172	26
4173	23
4174	25
4175	21
4176	21
4177	24
4178	26
4179	29
4180	37
4181	37
4182	34
4183	37
4184	36
4185	25
4186	19
4187	23
4188	23
4189	18
4190	18
4191	38
4192	46
4193	58
4194	45
4195	33
4196	27
4197	21
4198	24
4199	18
4200	16
4201	22
4202	23
4203	14
4204	17
4205	15
4206	19
4207	19
4208	19
4209	18
4210	26
4211	18
4212	22
4213	22
4214	19
4215	15
4216	18
4217	16
4218	15
4219	18
4220	16
4221	28
4222	16
4223	16
4224	16
4225	19
4226	20
4227	20
4228	19
4229	21
4230	16
4231	19
4232	17
4233	17
4234	13
4235	26
4236	16
4237	17
4238	17
4239	21
4240	19
4241	22
4242	19
4243	15
4244	18
4245	15
4246	14
4247	25
4248	17
4249	25
4250	21
4251	11
4252	30
4253	24
4254	20
4255	9
4256	14
4257	17
4258	15
4259	25
4260	17
4261	21
4262	16
4263	26
4264	21
4265	16
4266	25
4267	29
4268	26
4269	22
4270	22
4271	20
4272	21
4273	17
4274	16
4275	14
4276	24
4277	23
4278	22
4279	17
4280	14
4281	13
4282	20
4283	20
4284	23
4285	17
4286	19
4287	16
4288	17
4289	20
4290	23
4291	21
4292	33
4293	26
4294	18
4295	22
4296	29
4297	23
4298	25
4299	14
4300	18
4301	22
4302	13
4303	18
4304	15
4305	21
4306	25
4307	22
4308	29
4309	13
4310	21
4311	20
4312	19
4313	19
4314	14
4315	12
4316	20
4317	18
4318	22
4319	23
4320	17
4321	21
4322	16
4323	15
4324	28
4325	13
4326	14
4327	18
4328	18
4329	21
4330	15
4331	16
4332	13
4333	27
4334	13
4335	19
4336	18
4337	25
4338	22
4339	18
4340	18
4341	18
4342	21
4343	23
4344	19
4345	20
4346	15
4347	21
4348	17
4349	19
4350	20
4351	17
4352	23
4353	10
4354	24
4355	11
4356	21
4357	17
4358	12
4359	18
4360	26
4361	17
4362	14
4363	18
4364	15
4365	20
4366	23
4367	14
4368	18
4369	22
4370	22
4371	28
4372	30
4373	18
4374	29
4375	18
4376	17
4377	16
4378	21
4379	23
4380	22
4381	16
4382	17
4383	24
4384	15
4385	12
4386	18
4387	19
4388	30
4389	18
4390	15
4391	11
4392	14
4393	15
4394	18
4395	16
4396	16
4397	14
4398	22
4399	20
4400	24
4401	17
4402	18
4403	21
4404	16
4405	15
4406	23
4407	21
4408	15
4409	13
4410	12
4411	13
4412	9
4413	14
4414	16
4415	19
4416	14
4417	12
4418	19
4419	13
4420	17
4421	15
4422	23
4423	20
4424	14
4425	15
4426	11
4427	13
4428	13
4429	19
4430	16
4431	22
4432	18
4433	19
4434	21
4435	11
4436	23
4437	12
4438	15
4439	26
4440	17
4441	23
4442	17
4443	12
4444	14
4445	20
4446	21
4447	23
4448	21
4449	22
4450	19
4451	20
4452	19
4453	18
4454	18
4455	16
4456	18
4457	16
4458	19
4459	17
4460	17
4461	13
4462	22
4463	14
4464	17
4465	19
4466	14
4467	18
4468	18
4469	10
4470	18
4471	27
4472	17
4473	21
4474	22
4475	18
4476	14
4477	14
4478	19
4479	20
4480	17
4481	14
4482	16
4483	16
4484	14
4485	21
4486	19
4487	23
4488	12
4489	23
4490	12
4491	16
4492	14
4493	21
4494	17
4495	13
4496	16
4497	15
4498	14
4499	20
4500	16
4501	13
4502	22
4503	21
4504	14
4505	19
4506	17
4507	20
4508	13
4509	11
4510	23
4511	12
4512	13
4513	22
4514	16
4515	16
4516	16
4517	15
4518	14
4519	14
4520	12
4521	18
4522	20
4523	14
4524	14
4525	25
4526	19
4527	12
4528	21
4529	20
4530	26
4531	21
4532	20
4533	17
4534	15
4535	25
4536	21
4537	12
4538	22
4539	20
4540	19
4541	19
4542	19
4543	20
4544	28
4545	20
4546	27
4547	23
4548	30
4549	34
4550	33
4551	28
4552	28
4553	28
4554	19
4555	13
4556	16
4557	16
4558	10
4559	18
4560	16
4561	13
4562	14
4563	12
4564	19
4565	15
4566	21
4567	17
4568	17
4569	16
4570	18
4571	15
4572	12
4573	17
4574	15
4575	15
4576	11
4577	12
4578	13
4579	19
4580	19
4581	12
4582	17
4583	17
4584	12
4585	12
4586	12
4587	15
4588	20
4589	10
4590	15
4591	16
4592	19
4593	19
4594	14
4595	18
4596	13
4597	16
4598	20
4599	16
4600	15
4601	15
4602	11
4603	14
4604	8
4605	15
4606	19
4607	20
4608	17
4609	12
4610	17
4611	16
4612	15
4613	23
4614	15
4615	17
4616	14
4617	19
4618	17
4619	18
4620	18
4621	19
4622	19
4623	21
4624	12
4625	21
4626	16
4627	8
4628	11
4629	16
4630	17
4631	14
4632	16
4633	16
4634	17
4635	32
4636	57
4637	74
4638	99
4639	127
4640	131
4641	104
4642	79
4643	49
4644	31
4645	16
4646	16
4647	13
4648	10
4649	14
4650	10
4651	12
4652	15
4653	12
4654	11
4655	15
4656	7
4657	15
4658	16
4659	15
4660	12
4661	17
4662	15
4663	12
4664	21
4665	12
4666	12
4667	12
4668	20
4669	20
4670	10
4671	25
4672	22
4673	18
4674	18
4675	19
4676	20
4677	16
4678	13
4679	14
4680	14
4681	11
4682	15
4683	22
4684	19
4685	12
4686	11
4687	14
4688	18
4689	14
4690	7
4691	9
4692	20
4693	22
4694	17
4695	15
4696	20
4697	12
4698	21
4699	13
4700	15
4701	18
4702	12
4703	11
4704	14
4705	13
4706	17
4707	17
4708	16
4709	14
4710	20
4711	12
4712	16
4713	21
4714	12
4715	9
4716	14
4717	16
4718	24
4719	8
4720	13
4721	15
4722	16
4723	15
4724	12
4725	17
4726	14
4727	18
4728	10
4729	20
4730	18
4731	18
4732	15
4733	11
4734	13
4735	19
4736	13
4737	11
4738	19
4739	20
4740	12
4741	14
4742	14
4743	15
4744	12
4745	25
4746	11
4747	14
4748	12
4749	14
4750	14
4751	19
4752	15
4753	30
4754	19
4755	16
4756	16
4757	14
4758	15
4759	17
4760	18
4761	17
4762	11
4763	19
4764	18
4765	11
4766	14
4767	24
4768	14
4769	13
4770	13
4771	18
4772	18
4773	11
4774	16
4775	16
4776	11
4777	12
4778	13
4779	17
4780	7
4781	9
4782	16
4783	22
4784	8
4785	9
4786	8
4787	11
4788	16
4789	12
4790	13
4791	17
4792	14
4793	14
4794	18
4795	25
4796	13
4797	15
4798	25
4799	10
4800	18
4801	17
4802	19
4803	12
4804	11
4805	17
4806	10
4807	10
4808	14
4809	11
4810	12
4811	16
4812	16
4813	20
4814	14
4815	17
4816	12
4817	10
4818	16
4819	16
4820	20
4821	17
4822	16
4823	18
4824	17
4825	13
4826	12
4827	18
4828	7
4829	18
4830	20
4831	19
4832	14
4833	15
4834	13
4835	16
4836	16
4837	10
4838	12
4839	10
4840	13
4841	20
4842	25
4843	10
4844	15
4845	11
4846	14
4847	14
4848	15
4849	11
4850	26
4851	23
4852	32
4853	27
4854	31
4855	36
4856	21
4857	25
4858	26
4859	17
4860	11
4861	13
4862	12
4863	18
4864	13
4865	17
4866	16
4867	16
4868	13
4869	11
4870	3
4871	13
4872	12
4873	10
4874	16
4875	22
4876	15
4877	11
4878	10
4879	15
4880	13
4881	10
4882	17
4883	11
4884	18
4885	11
4886	11
4887	19
4888	18
4889	14
4890	12
4891	19
4892	6
4893	12
4894	10
4895	11
4896	13
4897	16
4898	16
4899	10
4900	17
4901	17
4902	16
4903	12
4904	13
4905	13
4906	18
4907	11
4908	19
4909	16
4910	12
4911	16
4912	11
4913	13
4914	10
4915	14
4916	14
4917	16
4918	15
4919	25
4920	10
4921	11
4922	15
4923	14
4924	8
4925	14
4926	20
4927	18
4928	14
4929	15
4930	15
4931	14
4932	22
4933	10
4934	13
4935	10
4936	16
4937	13
4938	15
4939	23
4940	11
4941	13
4942	11
4943	14
4944	18
4945	13
4946	9
4947	19
4948	16
4949	17
4950	19
4951	6
4952	15
4953	13
4954	19
4955	14
4956	18
4957	27
4958	23
4959	13
4960	17
4961	20
4962	11
4963	14
4964	17
4965	17
4966	16
4967	14
4968	18
4969	14
4970	12
4971	16
4972	13
4973	21
4974	14
4975	7
4976	16
4977	11
4978	9
4979	12
4980	13
4981	17
4982	12
4983	12
4984	14
4985	15
4986	9
4987	17
4988	11
4989	13
4990	17
4991	15
4992	8
4993	12
4994	17
4995	18
4996	8
4997	18
4998	17
4999	12
5000	12
5001	18
5002	14
5003	8
5004	12
5005	19
5006	12
5007	16
5008	11
5009	15
5010	13
5011	15
5012	14
5013	13
5014	10
5015	15
5016	19
5017	7
5018	13
5019	15
5020	17
5021	13
5022	7
5023	25
5024	18
5025	20
5026	10
5027	19
5028	22
5029	19
5030	19
5031	13
5032	11
5033	10
5034	15
5035	17
5036	7
5037	23
5038	20
5039	14
5040	16
5041	20
5042	18
5043	10
5044	21
5045	14
5046	17
5047	11
5048	13
5049	17
5050	12
5051	15
5052	26
5053	13
5054	18
5055	11
5056	30
5057	17
5058	15
5059	14
5060	14
5061	12
5062	16
5063	20
5064	11
5065	11
5066	14
5067	22
5068	17
5069	17
5070	18
5071	10
5072	14
5073	15
5074	13
5075	11
5076	12
5077	15
5078	10
5079	13
5080	14
5081	16
5082	10
5083	15
5084	14
5085	13
5086	13
5087	16
5088	17
5089	12
5090	10
5091	10
5092	13
5093	16
5094	19
5095	18
5096	17
5097	12
5098	13
5099	10
5100	12
5101	14
5102	10
5103	15
5104	23
5105	12
5106	19
5107	18
5108	9
5109	12
5110	11
5111	10
5112	14
5113	13
5114	7
5115	9
5116	10
5117	16
5118	12
5119	14
5120	16
5121	12
5122	16
5123	13
5124	16
5125	9
5126	11
5127	18
5128	13
5129	9
5130	17
5131	13
5132	12
5133	13
5134	15
5135	13
5136	13
5137	13
5138	19
5139	7
5140	12
5141	15
5142	13
5143	13
5144	14
5145	8
5146	8
5147	11
5148	9
5149	14
5150	13
5151	9
5152	12
5153	14
5154	16
5155	13
5156	12
5157	8
5158	26
5159	17
5160	17
5161	13
5162	27
5163	16
5164	16
5165	13
5166	10
5167	19
5168	12
5169	15
5170	11
5171	13
5172	13
5173	7
5174	11
5175	22
5176	17
5177	11
5178	14
5179	10
5180	12
5181	9
5182	17
5183	16
5184	21
5185	10
5186	19
5187	19
5188	8
5189	13
5190	14
5191	11
5192	10
5193	9
5194	9
5195	18
5196	12
5197	14
5198	17
5199	10
5200	16
5201	8
5202	17
5203	11
5204	13
5205	18
5206	15
5207	17
5208	12
5209	17
5210	10
5211	15
5212	9
5213	10
5214	11
5215	11
5216	13
5217	12
5218	9
5219	13
5220	14
5221	7
5222	16
5223	10
5224	8
5225	13
5226	17
5227	14
5228	10
5229	13
5230	14
5231	14
5232	13
5233	12
5234	11
5235	11
5236	12
5237	7
5238	4
5239	13
5240	15
5241	9
5242	8
5243	17
5244	16
5245	16
5246	12
5247	11
5248	14
5249	13
5250	14
5251	15
5252	13
5253	8
5254	15
5255	18
5256	6
5257	11
5258	13
5259	14
5260	10
5261	11
5262	14
5263	23
5264	12
5265	10
5266	12
5267	8
5268	12
5269	17
5270	10
5271	12
5272	17
5273	16
5274	8
5275	13
5276	8
5277	13
5278	10
5279	17
5280	10
5281	7
5282	13
5283	16
5284	10
5285	19
5286	12
5287	17
5288	12
5289	13
5290	11
5291	5
5292	9
5293	13
5294	16
5295	5
5296	12
5297	12
5298	12
5299	11
5300	10
5301	19
5302	14
5303	13
5304	6
5305	16
5306	13
5307	9
5308	12
5309	8
5310	12
5311	10
5312	7
5313	10
5314	11
5315	14
5316	9
5317	10
5318	14
5319	15
5320	10
5321	15
5322	11
5323	9
5324	14
5325	5
5326	11
5327	11
5328	13
5329	8
5330	10
5331	11
5332	15
5333	11
5334	14
5335	10
5336	15
5337	18
5338	14
5339	19
5340	7
5341	7
5342	10
5343	16
5344	15
5345	9
5346	9
5347	7
5348	16
5349	13
5350	11
5351	10
5352	14
5353	13
5354	13
5355	15
5356	11
5357	16
5358	14
5359	14
5360	12
5361	12
5362	9
5363	7
5364	12
5365	16
5366	9
5367	13
5368	14
5369	13
5370	11
5371	15
5372	9
5373	11
5374	14
5375	7
5376	14
5377	6
5378	15
5379	9
5380	11
5381	15
5382	9
5383	15
5384	17
5385	12
5386	4
5387	14
5388	18
5389	12
5390	12
5391	4
5392	10
5393	13
5394	13
5395	12
5396	12
5397	12
5398	8
5399	12
5400	10
5401	7
5402	13
5403	16
5404	13
5405	10
5406	14
5407	11
5408	11
5409	14
5410	14
5411	7
5412	17
5413	10
5414	15
5415	6
5416	8
5417	17
5418	9
5419	12
5420	18
5421	8
5422	11
5423	15
5424	9
5425	15
5426	15
5427	14
5428	15
5429	12
5430	8
5431	15
5432	13
5433	12
5434	18
5435	17
5436	6
5437	13
5438	13
5439	11
5440	14
5441	17
5442	21
5443	11
5444	14
5445	9
5446	13
5447	12
5448	12
5449	8
5450	13
5451	10
5452	10
5453	17
5454	12
5455	14
5456	13
5457	9
5458	15
5459	17
5460	12
5461	12
5462	14
5463	12
5464	9
5465	9
5466	15
5467	10
5468	9
5469	8
5470	17
5471	18
5472	9
5473	12
5474	10
5475	16
5476	23
5477	15
5478	20
5479	11
5480	15
5481	11
5482	11
5483	14
5484	15
5485	13
5486	11
5487	7
5488	12
5489	13
5490	13
5491	11
5492	15
5493	20
5494	10
5495	9
5496	10
5497	14
5498	8
5499	16
5500	9
5501	13
5502	13
5503	19
5504	7
5505	17
5506	11
5507	8
5508	11
5509	13
5510	21
5511	16
5512	23
5513	25
5514	15
5515	17
5516	39
5517	27
5518	41
5519	36
5520	29
5521	28
5522	30
5523	18
5524	14
5525	15
5526	21
5527	12
5528	15
5529	15
5530	12
5531	22
5532	10
5533	15
5534	12
5535	14
5536	9
5537	18
5538	10
5539	13
5540	8
5541	12
5542	9
5543	4
5544	10
5545	12
5546	11
5547	12
5548	11
5549	13
5550	9
5551	13
5552	13
5553	15
5554	13
5555	17
5556	13
5557	20
5558	22
5559	24
5560	11
5561	21
5562	7
5563	17
5564	13
5565	12
5566	9
5567	10
5568	11
5569	10
5570	13
5571	9
5572	13
5573	14
5574	11
5575	16
5576	8
5577	15
5578	11
5579	7
5580	14
5581	17
5582	10
5583	11
5584	19
5585	19
5586	13
5587	9
5588	11
5589	9
5590	14
5591	10
5592	8
5593	10
5594	13
5595	8
5596	12
5597	17
5598	10
5599	12
5600	8
5601	8
5602	12
5603	10
5604	11
5605	15
5606	12
5607	11
5608	7
5609	14
5610	12
5611	11
5612	10
5613	12
5614	10
5615	22
5616	11
5617	12
5618	8
5619	14
5620	6
5621	13
5622	11
5623	6
5624	8
5625	9
5626	17
5627	9
5628	12
5629	13
5630	15
5631	9
5632	15
5633	11
5634	9
5635	13
5636	17
5637	14
5638	16
5639	9
5640	14
5641	11
5642	7
5643	15
5644	10
5645	12
5646	11
5647	14
5648	16
5649	13
5650	10
5651	12
5652	12
5653	10
5654	16
5655	9
5656	14
5657	12
5658	6
5659	18
5660	14
5661	13
5662	11
5663	12
5664	8
5665	8
5666	6
5667	15
5668	11
5669	3
5670	14
5671	9
5672	12
5673	6
5674	10
5675	10
5676	17
5677	13
5678	15
5679	7
5680	9
5681	10
5682	12
5683	13
5684	5
5685	8
5686	7
5687	15
5688	11
5689	12
5690	13
5691	7
5692	9
5693	10
5694	13
5695	6
5696	6
5697	14
5698	13
5699	10
5700	11
5701	11
5702	13
5703	11
5704	8
5705	10
5706	18
5707	16
5708	9
5709	15
5710	10
5711	9
5712	10
5713	11
5714	7
5715	13
5716	15
5717	13
5718	11
5719	13
5720	6
5721	10
5722	10
5723	7
5724	10
5725	12
5726	7
5727	9
5728	15
5729	19
5730	13
5731	10
5732	10
5733	10
5734	10
5735	14
5736	11
5737	11
5738	9
5739	11
5740	5
5741	8
5742	8
5743	13
5744	11
5745	14
5746	9
5747	10
5748	14
5749	14
5750	13
5751	10
5752	12
5753	14
5754	13
5755	5
5756	13
5757	9
5758	13
5759	11
5760	18
5761	13
5762	10
5763	8
5764	15
5765	9
5766	19
5767	10
5768	14
5769	10
5770	6
5771	9
5772	14
5773	19
5774	15
5775	22
5776	36
5777	37
5778	52
5779	45
5780	43
5781	30
5782	31
5783	17
5784	22
5785	14
5786	9
5787	13
5788	7
5789	15
5790	15
5791	7
5792	7
5793	14
5794	8
5795	9
5796	7
5797	10
5798	8
5799	12
5800	10
5801	14
5802	16
5803	14
5804	12
5805	13
5806	9
5807	8
5808	15
5809	13
5810	10
5811	9
5812	17
5813	15
5814	18
5815	13
5816	5
5817	13
5818	5
5819	10
5820	12
5821	9
5822	21
5823	11
5824	9
5825	11
5826	13
5827	19
5828	19
5829	10
5830	21
5831	13
5832	15
5833	15
5834	18
5835	13
5836	9
5837	11
5838	13
5839	7
5840	7
5841	10
5842	13
5843	9
5844	13
5845	13
5846	11
5847	17
5848	6
5849	10
5850	15
5851	13
5852	10
5853	17
5854	5
5855	14
5856	6
5857	11
5858	9
5859	18
5860	19
5861	8
5862	13
5863	15
5864	9
5865	11
5866	15
5867	15
5868	10
5869	12
5870	12
5871	11
5872	9
5873	19
5874	16
5875	9
5876	18
5877	7
5878	6
5879	11
5880	13
5881	13
5882	17
5883	16
5884	12
5885	18
5886	9
5887	8
5888	19
5889	13
5890	6
5891	9
5892	12
5893	19
5894	9
5895	15
5896	11
5897	12
5898	5
5899	11
5900	18
5901	13
5902	12
5903	14
5904	10
5905	14
5906	8
5907	9
5908	11
5909	7
5910	12
5911	9
5912	17
5913	15
5914	15
5915	9
5916	11
5917	6
5918	11
5919	10
5920	11
5921	15
5922	9
5923	6
5924	16
5925	12
5926	11
5927	15
5928	17
5929	15
5930	8
5931	12
5932	12
5933	8
5934	4
5935	10
5936	7
5937	9
5938	10
5939	16
5940	11
5941	14
5942	13
5943	6
5944	13
5945	11
5946	11
5947	18
5948	9
5949	11
5950	16
5951	8
5952	18
5953	11
5954	14
5955	15
5956	4
5957	9
5958	14
5959	11
5960	16
5961	17
5962	24
5963	12
5964	8
5965	13
5966	10
5967	10
5968	12
5969	12
5970	16
5971	11
5972	12
5973	13
5974	11
5975	9
5976	9
5977	15
5978	11
5979	8
5980	14
5981	21
5982	12
5983	10
5984	12
5985	10
5986	8
5987	12
5988	11
5989	10
5990	12
5991	10
5992	13
5993	11
5994	9
5995	5
5996	13
5997	16
5998	14
5999	9
6000	9
6001	14
6002	11
6003	12
6004	10
6005	10
6006	10
6007	10
6008	13
6009	16
6010	18
6011	13
6012	16
6013	12
6014	10
6015	12
6016	13
6017	13
6018	8
6019	12
6020	9
6021	9
6022	16
6023	12
6024	9
6025	10
6026	11
6027	8
6028	7
6029	13
6030	11
6031	10
6032	10
6033	6
6034	10
6035	11
6036	14
6037	9
6038	14
6039	9
6040	10
6041	12
6042	6
6043	13
6044	6
6045	12
6046	10
6047	11
6048	11
6049	11
6050	16
6051	8
6052	13
6053	5
6054	9
6055	7
6056	9
6057	9
6058	10
6059	10
6060	11
6061	16
6062	19
6063	10
6064	9
6065	7
6066	6
6067	13
6068	11
6069	9
6070	13
6071	13
6072	12
6073	13
6074	8
6075	11
6076	11
6077	4
6078	10
6079	9
6080	23
6081	20
6082	14
6083	5
6084	5
6085	14
6086	9
6087	8
6088	7
6089	8
6090	17
6091	10
6092	16
6093	13
6094	8
6095	11
6096	11
6097	11
6098	10
6099	15
6100	11
6101	16
6102	5
6103	4
6104	11
6105	12
6106	13
6107	15
6108	11
6109	11
6110	15
6111	8
6112	13
6113	12
6114	8
6115	7
6116	8
6117	14
6118	16
6119	8
6120	6
6121	12
6122	12
6123	13
6124	15
6125	9
6126	11
6127	13
6128	15
6129	9
6130	15
6131	11
6132	13
6133	17
6134	11
6135	9
6136	13
6137	13
6138	8
6139	13
6140	14
6141	8
6142	9
6143	11
6144	10
6145	10
6146	13
6147	8
6148	12
6149	13
6150	6
6151	10
6152	4
6153	9
6154	9
6155	9
6156	16
6157	12
6158	8
6159	11
6160	20
6161	12
6162	6
6163	14
6164	12
6165	7
6166	14
6167	6
6168	9
6169	10
6170	5
6171	12
6172	8
6173	8
6174	14
6175	11
6176	10
6177	10
6178	12
6179	10
6180	12
6181	19
6182	11
6183	15
6184	13
6185	19
6186	6
6187	9
6188	10
6189	7
6190	11
6191	10
6192	10
6193	15
6194	11
6195	9
6196	11
6197	22
6198	16
6199	13
6200	13
6201	6
6202	9
6203	20
6204	13
6205	12
6206	8
6207	12
6208	15
6209	7
6210	8
6211	9
6212	10
6213	10
6214	7
6215	18
6216	8
6217	15
6218	4
6219	15
6220	14
6221	9
6222	10
6223	10
6224	7
6225	7
6226	14
6227	14
6228	9
6229	14
6230	18
6231	12
6232	8
6233	10
6234	14
6235	15
6236	14
6237	9
6238	11
6239	10
6240	9
6241	16
6242	7
6243	9
6244	14
6245	10
6246	16
6247	10
6248	12
6249	11
6250	10
6251	10
6252	6
6253	6
6254	10
6255	14
6256	14
6257	10
6258	10
6259	14
6260	16
6261	7
6262	6
6263	11
6264	11
6265	17
6266	12
6267	14
6268	10
6269	8
6270	17
6271	14
6272	7
6273	12
6274	6
6275	10
6276	9
6277	13
6278	11
6279	5
6280	7
6281	8
6282	7
6283	10
6284	9
6285	10
6286	7
6287	4
6288	9
6289	7
6290	11
6291	11
6292	11
6293	12
6294	10
6295	15
6296	9
6297	10
6298	7
6299	18
6300	10
6301	11
6302	5
6303	7
6304	10
6305	4
6306	3
6307	16
6308	9
6309	9
6310	2
6311	9
6312	11
6313	8
6314	11
6315	14
6316	9
6317	10
6318	10
6319	12
6320	8
6321	6
6322	12
6323	7
6324	11
6325	13
6326	15
6327	14
6328	11
6329	11
6330	12
6331	10
6332	6
6333	9
6334	7
6335	12
6336	11
6337	9
6338	6
6339	10
6340	13
6341	9
6342	8
6343	12
6344	8
6345	6
6346	7
6347	10
6348	9
6349	13
6350	7
6351	7
6352	14
6353	15
6354	15
6355	14
6356	5
6357	8
6358	12
6359	10
6360	17
6361	12
6362	3
6363	11
6364	4
6365	12
6366	8
6367	10
6368	12
6369	6
6370	10
6371	9
6372	15
6373	10
6374	7
6375	8
6376	13
6377	5
6378	8
6379	10
6380	8
6381	8
6382	14
6383	4
6384	5
6385	4
6386	7
6387	11
6388	7
6389	10
6390	7
6391	10
6392	6
6393	14
6394	9
6395	10
6396	12
6397	7
6398	10
6399	5
6400	11
6401	7
6402	10
6403	6
6404	7
6405	10
6406	10
6407	11
6408	16
6409	19
6410	18
6411	24
6412	15
6413	12
6414	17
6415	11
6416	8
6417	9
6418	13
6419	12
6420	14
6421	4
6422	7
6423	5
6424	8
6425	9
6426	8
6427	4
6428	11
6429	9
6430	10
6431	11
6432	4
6433	11
6434	9
6435	9
6436	6
6437	7
6438	6
6439	6
6440	9
6441	10
6442	5
6443	5
6444	12
6445	8
6446	7
6447	9
6448	6
6449	12
6450	6
6451	4
6452	12
6453	3
6454	10
6455	8
6456	11
6457	8
6458	9
6459	9
6460	7
6461	10
6462	8
6463	11
6464	3
6465	4
6466	8
6467	11
6468	6
6469	10
6470	4
6471	3
6472	5
6473	8
6474	9
6475	8
6476	9
6477	10
6478	4
6479	7
6480	7
6481	9
6482	6
6483	9
6484	9
6485	8
6486	9
6487	9
6488	10
6489	8
6490	8
6491	10
6492	5
6493	3
6494	6
6495	10
6496	6
6497	7
6498	11
6499	3
6500	10
6501	11
6502	6
6503	7
6504	5
6505	4
6506	6
6507	6
6508	10
6509	8
6510	6
6511	6
6512	4
6513	2
6514	10
6515	4
6516	5
6517	1
6518	8
6519	9
6520	8
6521	3
6522	8
6523	6
6524	12
6525	8
6526	7
6527	9
6528	13
6529	8
6530	5
6531	5
6532	12
6533	5
6534	3
6535	7
6536	11
6537	9
6538	5
6539	9
6540	3
6541	6
6542	8
6543	8
6544	5
6545	10
6546	3
6547	8
6548	6
6549	3
6550	12
6551	12
6552	3
6553	8
6554	4
6555	8
6556	6
6557	2
6558	7
6559	9
6560	9
6561	9
6562	4
6563	14
6564	8
6565	8
6566	3
6567	5
6568	2
6569	6
6570	4
6571	6
6572	7
6573	7
6574	3
6575	3
6576	6
6577	6
6578	6
6579	9
6580	10
6581	6
6582	4
6583	8
6584	10
6585	9
6586	10
6587	10
6588	6
6589	9
6590	6
6591	6
6592	9
6593	7
6594	5
6595	11
6596	7
6597	16
6598	6
6599	9
6600	6
6601	6
6602	9
6603	7
6604	8
6605	5
6606	9
6607	3
6608	10
6609	2
6610	1
6611	8
6612	6
6613	6
6614	4
6615	1
6616	4
6617	6
6618	3
6619	5
6620	5
6621	9
6622	4
6623	4
6624	7
6625	3
6626	7
6627	7
6628	9
6629	8
6630	4
6631	6
6632	9
6633	5
6634	4
6635	6
6636	10
6637	13
6638	3
6639	8
6640	6
6641	6
6642	11
6643	5
6644	2
6645	7
6646	1
6647	5
6648	8
6649	8
6650	4
6651	4
6652	8
6653	6
6654	3
6655	5
6656	8
6657	7
6658	10
6659	13
6660	6
6661	3
6662	7
6663	4
6664	6
6665	5
6666	5
6667	10
6668	5
6669	9
6670	6
6671	5
6672	3
6673	8
6674	4
6675	12
6676	6
6677	9
6678	6
6679	4
6680	3
6681	5
6682	8
6683	7
6684	11
6685	6
6686	5
6687	10
6688	2
6689	5
6690	7
6691	12
6692	9
6693	6
6694	7
6695	4
6696	7
6697	7
6698	10
6699	3
6700	6
6701	8
6702	4
6703	5
6704	4
6705	10
6706	5
6707	5
6708	4
6709	11
6710	7
6711	8
6712	4
6713	7
6714	12
6715	7
6716	5
6717	4
6718	3
6719	9
6720	9
6721	5
6722	4
6723	7
6724	6
6725	5
6726	7
6727	8
6728	4
6729	2
6730	4
6731	4
6732	3
6733	5
6734	3
6735	8
6736	2
6737	4
6738	8
6739	5
6740	9
6741	9
6742	5
6743	7
6744	5
6745	9
6746	12
6747	1
6748	2
6749	7
6750	9
6751	8
6752	9
6753	5
6754	8
6755	11
6756	8
6757	4
6758	4
6759	7
6760	9
6761	5
6762	6
6763	4
6764	8
6765	8
6766	9
6767	7
6768	6
6769	8
6770	6
6771	5
6772	5
6773	11
6774	8
6775	4
6776	6
6777	4
6778	6
6779	7
6780	5
6781	5
6782	8
6783	4
6784	5
6785	9
6786	3
6787	7
6788	4
6789	7
6790	7
6791	7
6792	5
6793	4
6794	7
6795	4
6796	10
6797	9
6798	8
6799	7
6800	4
6801	4
6802	6
6803	4
6804	6
6805	3
6806	10
6807	15
6808	9
6809	9
6810	5
6811	7
6812	7
6813	12
6814	6
6815	10
6816	7
6817	9
6818	8
6819	8
6820	9
6821	4
6822	7
6823	5
6824	1
6825	4
6826	3
6827	11
6828	10
6829	3
6830	3
6831	5
6832	10
6833	10
6834	7
6835	14
6836	20
6837	44
6838	70
6839	111
6840	147
6841	228
6842	250
6843	214
6844	206
6845	180
6846	144
6847	90
6848	57
6849	26
6850	15
6851	9
6852	8
6853	6
6854	8
6855	4
6856	4
6857	8
6858	6
6859	8
6860	4
6861	12
6862	8
6863	9
6864	4
6865	9
6866	6
6867	4
6868	4
6869	3
6870	4
6871	8
6872	7
6873	9
6874	2
6875	7
6876	10
6877	7
6878	2
6879	3
6880	4
6881	4
6882	6
6883	6
6884	6
6885	4
6886	9
6887	5
6888	5
6889	3
6890	8
6891	7
6892	3
6893	4
6894	6
6895	5
6896	6
6897	5
6898	8
6899	4
6900	5
6901	3
6902	1
6903	3
6904	2
6905	3
6906	1
6907	1
6908	5
6909	7
6910	6
6911	4
6912	8
6913	3
6914	6
6915	3
6916	2
6917	4
6918	4
6919	8
6920	2
6921	3
6922	6
6923	5
6924	5
6925	10
6926	3
6927	4
6928	10
6929	5
6930	4
6931	7
6932	6
6933	9
6934	6
6935	8
6936	6
6937	4
6938	2
6939	4
6940	6
6941	8
6942	8
6943	4
6944	3
6945	3
6946	9
6947	4
6948	3
6949	6
6950	4
6951	7
6952	10
6953	4
6954	3
6955	5
6956	8
6957	4
6958	1
6959	3
6960	5
6961	5
6962	7
6963	8
6964	7
6965	9
6966	10
6967	3
6968	4
6969	3
6970	4
6971	6
6972	4
6973	3
6974	4
6975	5
6976	4
6977	3
6978	6
6979	3
6980	7
6981	2
6982	5
6983	2
6984	3
6985	1
6986	4
6987	3
6988	4
6989	5
6990	3
6991	4
6992	5
6993	7
6994	7
6995	6
6996	4
6997	5
6998	9
6999	8
7000	3
7001	6
7002	6
7003	4
7004	3
7005	3
7006	7
7007	10
7008	4
7009	6
7010	8
7011	8
7012	6
7013	6
7014	5
7015	7
7016	4
7017	3
7018	10
7019	5
7020	3
7021	6
7022	10
7023	5
7024	6
7025	6
7026	1
7027	2
7028	10
7029	5
7030	3
7031	4
7032	6
7033	6
7034	4
7035	3
7036	2
7037	2
7038	7
7039	5
7040	3
7041	2
7042	2
7043	4
7044	4
7045	3
7046	6
7047	2
7048	7
7049	9
7050	5
7051	4
7052	10
7053	5
7054	3
7055	6
7056	9
7057	1
7058	7
7059	5
7060	5
7061	5
7062	7
7063	6
7064	4
7065	6
7066	4
7067	8
7068	2
7069	5
7070	7
7071	2
7072	4
7073	4
7074	2
7075	1
7076	6
7077	3
7078	5
7079	5
7080	7
7081	4
7082	6
7083	5
7084	4
7085	7
7086	3
7087	4
7088	8
7089	9
7090	7
7091	3
7092	1
7093	7
7094	3
7095	5
7096	11
7097	6
7098	6
7099	9
7100	6
7101	3
7102	3
7103	7
7104	8
7105	3
7106	3
7107	4
7108	4
7109	9
7110	2
7111	6
7112	1
7113	6
7114	6
7115	1
7116	8
7117	3
7118	6
7119	8
7120	4
7121	4
7122	6
7123	7
7124	6
7125	6
7126	5
7127	7
7128	5
7129	1
7130	2
7131	2
7132	5
7133	7
7134	6
7135	2
7136	6
7137	5
7138	3
7139	4
7140	3
7141	6
7142	1
7143	12
7144	2
7145	3
7146	4
7147	4
7148	6
7149	4
7150	4
7151	7
7152	3
7153	4
7154	6
7155	5
7156	5
7157	5
7158	2
7159	5
7160	4
7161	6
7162	7
7163	0
7164	4
7165	2
7166	4
7167	3
7168	4
7169	5
7170	8
7171	2
7172	11
7173	6
7174	2
7175	6
7176	1
7177	3
7178	3
7179	4
7180	7
7181	2
7182	4
7183	2
7184	2
7185	3
7186	7
7187	5
7188	4
7189	4
7190	1
7191	7
7192	2
7193	4
7194	1
7195	2
7196	5
7197	1
7198	4
7199	3
7200	9
7201	9
7202	5
7203	8
7204	4
7205	4
7206	3
7207	7
7208	8
7209	4
7210	3
7211	6
7212	5
7213	4
7214	5
7215	4
7216	3
7217	6
7218	5
7219	2
7220	5
7221	7
7222	5
7223	6
7224	6
7225	6
7226	3
7227	3
7228	1
7229	7
7230	5
7231	7
7232	7
7233	1
7234	4
7235	5
7236	2
7237	9
7238	9
7239	2
7240	3
7241	3
7242	9
7243	7
7244	3
7245	3
7246	5
7247	6
7248	7
7249	3
7250	7
7251	6
7252	5
7253	5
7254	4
7255	4
7256	3
7257	3
7258	2
7259	4
7260	7
7261	5
7262	3
7263	6
7264	5
7265	5
7266	6
7267	7
7268	9
7269	5
7270	4
7271	8
7272	6
7273	5
7274	5
7275	2
7276	5
7277	5
7278	7
7279	5
7280	7
7281	5
7282	5
7283	5
7284	6
7285	2
7286	2
7287	5
7288	5
7289	3
7290	1
7291	4
7292	4
7293	7
7294	1
7295	5
7296	4
7297	7
7298	1
7299	2
7300	9
7301	7
7302	6
7303	4
7304	4
7305	4
7306	8
7307	2
7308	3
7309	4
7310	5
7311	3
7312	5
7313	4
7314	3
7315	7
7316	3
7317	10
7318	5
7319	2
7320	3
7321	7
7322	3
7323	5
7324	7
7325	4
7326	5
7327	3
7328	3
7329	7
7330	4
7331	3
7332	3
7333	3
7334	6
7335	13
7336	4
7337	5
7338	7
7339	9
7340	6
7341	6
7342	2
7343	5
7344	8
7345	5
7346	5
7347	3
7348	4
7349	6
7350	7
7351	7
7352	5
7353	3
7354	4
7355	5
7356	7
7357	5
7358	6
7359	5
7360	4
7361	5
7362	5
7363	3
7364	7
7365	3
7366	5
7367	3
7368	9
7369	2
7370	7
7371	2
7372	5
7373	4
7374	2
7375	6
7376	8
7377	5
7378	8
7379	6
7380	4
7381	7
7382	2
7383	5
7384	3
7385	3
7386	4
7387	4
7388	5
7389	7
7390	3
7391	4
7392	1
7393	6
7394	5
7395	3
7396	9
7397	3
7398	9
7399	7
7400	6
7401	8
7402	5
7403	10
7404	2
7405	5
7406	3
7407	1
7408	7
7409	1
7410	6
7411	3
7412	4
7413	2
7414	6
7415	6
7416	5
7417	2
7418	2
7419	4
7420	4
7421	5
7422	4
7423	7
7424	6
7425	4
7426	2
7427	3
7428	8
7429	5
7430	2
7431	3
7432	4
7433	5
7434	4
7435	6
7436	6
7437	8
7438	3
7439	3
7440	4
7441	3
7442	9
7443	2
7444	5
7445	4
7446	5
7447	9
7448	3
7449	4
7450	3
7451	5
7452	6
7453	5
7454	2
7455	4
7456	11
7457	3
7458	6
7459	4
7460	4
7461	4
7462	7
7463	8
7464	6
7465	4
7466	6
7467	2
7468	2
7469	4
7470	5
7471	3
7472	6
7473	6
7474	2
7475	5
7476	4
7477	0
7478	3
7479	5
7480	2
7481	9
7482	5
7483	10
7484	6
7485	4
7486	5
7487	7
7488	3
7489	4
7490	5
7491	7
7492	5
7493	8
7494	5
7495	2
7496	1
7497	1
7498	2
7499	4
7500	11
7501	4
7502	4
7503	5
7504	6
7505	4
7506	2
7507	3
7508	6
7509	6
7510	3
7511	5
7512	1
7513	5
7514	9
7515	9
7516	6
7517	8
7518	3
7519	6
7520	4
7521	3
7522	4
7523	5
7524	4
7525	4
7526	5
7527	2
7528	6
7529	4
7530	5
7531	1
7532	5
7533	6
7534	3
7535	5
7536	5
7537	7
7538	6
7539	4
7540	5
7541	2
7542	4
7543	5
7544	7
7545	3
7546	2
7547	5
7548	3
7549	4
7550	3
7551	0
7552	3
7553	4
7554	2
7555	6
7556	2
7557	6
7558	4
7559	8
7560	4
7561	5
7562	3
7563	4
7564	8
7565	4
7566	4
7567	3
7568	8
7569	4
7570	8
7571	6
7572	4
7573	3
7574	3
7575	5
7576	5
7577	5
7578	9
7579	6
7580	4
7581	3
7582	0
7583	4
7584	8
7585	6
7586	4
7587	5
7588	8
7589	3
7590	4
7591	4
7592	2
7593	6
7594	5
7595	7
7596	7
7597	6
7598	2
7599	4
7600	6
7601	3
7602	5
7603	7
7604	6
7605	2
7606	8
7607	3
7608	1
7609	3
7610	4
7611	4
7612	6
7613	4
7614	4
7615	4
7616	6
7617	3
7618	2
7619	6
7620	2
7621	0
7622	7
7623	5
7624	3
7625	3
7626	3
7627	10
7628	3
7629	4
7630	6
7631	7
7632	5
7633	4
7634	3
7635	4
7636	1
7637	1
7638	5
7639	4
7640	6
7641	6
7642	5
7643	3
7644	4
7645	0
7646	7
7647	7
7648	5
7649	6
7650	4
7651	2
7652	4
7653	5
7654	4
7655	0
7656	5
7657	5
7658	4
7659	6
7660	4
7661	3
7662	2
7663	4
7664	2
7665	5
7666	11
7667	3
7668	5
7669	4
7670	3
7671	3
7672	2
7673	2
7674	0
7675	2
7676	5
7677	1
7678	4
7679	6
7680	7
7681	6
7682	7
7683	6
7684	1
7685	4
7686	3
7687	3
7688	1
7689	2
7690	4
7691	5
7692	4
7693	5
7694	3
7695	4
7696	5
7697	4
7698	3
7699	4
7700	5
7701	9
7702	6
7703	4
7704	4
7705	2
7706	2
7707	1
7708	3
7709	4
7710	4
7711	2
7712	5
7713	5
7714	1
7715	3
7716	6
7717	2
7718	2
7719	7
7720	8
7721	6
7722	2
7723	2
7724	1
7725	1
7726	2
7727	0
7728	6
7729	6
7730	1
7731	6
7732	7
7733	5
7734	5
7735	4
7736	1
7737	0
7738	5
7739	5
7740	4
7741	3
7742	4
7743	5
7744	3
7745	3
7746	3
7747	2
7748	3
7749	3
7750	4
7751	2
7752	4
7753	2
7754	7
7755	4
7756	7
7757	3
7758	3
7759	4
7760	3
7761	2
7762	3
7763	2
7764	7
7765	1
7766	10
7767	1
7768	2
7769	2
7770	4
7771	2
7772	1
7773	2
7774	2
7775	5
7776	4
7777	5
7778	2
7779	3
7780	10
7781	4
7782	5
7783	5
7784	3
7785	5
7786	2
7787	2
7788	3
7789	2
7790	8
7791	4
7792	7
7793	5
7794	9
7795	4
7796	1
7797	4
7798	2
7799	1
7800	6
7801	4
7802	5
7803	5
7804	6
7805	2
7806	6
7807	4
7808	5
7809	1
7810	5
7811	3
7812	8
7813	5
7814	4
7815	2
7816	5
7817	2
7818	4
7819	3
7820	4
7821	11
7822	4
7823	5
7824	2
7825	8
7826	6
7827	5
7828	6
7829	1
7830	3
7831	3
7832	2
7833	5
7834	4
7835	6
7836	4
7837	4
7838	2
7839	4
7840	2
7841	6
7842	3
7843	3
7844	6
7845	1
7846	3
7847	4
7848	5
7849	4
7850	7
7851	1
7852	5
7853	5
7854	6
7855	4
7856	4
7857	6
7858	10
7859	7
7860	4
7861	5
7862	3
7863	7
7864	5
7865	6
7866	3
7867	6
7868	3
7869	4
7870	3
7871	7
7872	5
7873	5
7874	4
7875	5
7876	4
7877	4
7878	2
7879	6
7880	5
7881	2
7882	4
7883	4
7884	3
7885	1
7886	3
7887	3
7888	8
7889	4
7890	2
7891	2
7892	5
7893	5
7894	4
7895	7
7896	0
7897	5
7898	3
7899	5
7900	8
7901	8
7902	5
7903	2
7904	6
7905	8
7906	4
7907	2
7908	3
7909	8
7910	7
7911	2
7912	1
7913	3
7914	6
7915	2
7916	6
7917	4
7918	4
7919	3
7920	1
7921	3
7922	4
7923	4
7924	5
7925	4
7926	6
7927	2
7928	7
7929	2
7930	5
7931	2
7932	2
7933	5
7934	8
7935	4
7936	3
7937	4
7938	0
7939	4
7940	3
7941	4
7942	8
7943	3
7944	4
7945	9
7946	4
7947	5
7948	2
7949	5
7950	3
7951	7
7952	5
7953	8
7954	4
7955	2
7956	5
7957	2
7958	3
7959	8
7960	4
7961	6
7962	6
7963	1
7964	4
7965	5
7966	3
7967	3
7968	7
7969	3
7970	9
7971	3
7972	4
7973	3
7974	1
7975	3
7976	6
7977	10
7978	1
7979	4
7980	4
7981	5
7982	5
7983	3
7984	6
7985	5
7986	3
7987	4
7988	5
7989	4
7990	3
7991	5
7992	1
7993	6
7994	2
7995	4
7996	4
7997	4
7998	7
7999	5
8000	5
8001	5
8002	5
8003	2
8004	4
8005	6
8006	3
8007	1
8008	3
8009	2
8010	3
8011	7
8012	2
8013	4
8014	12
8015	5
8016	3
8017	3
8018	2
8019	6
8020	4
8021	4
8022	3
8023	6
8024	4
8025	9
8026	4
8027	3
8028	5
8029	5
8030	4
8031	3
8032	5
8033	3
8034	1
8035	7
8036	5
8037	4
8038	1
8039	2
8040	2
8041	6
8042	4
8043	1
8044	4
8045	6
8046	4
8047	3
8048	4
8049	0
8050	7
8051	4
8052	3
8053	3
8054	6
8055	3
8056	3
8057	7
8058	3
8059	2
8060	2
8061	4
8062	6
8063	5
8064	0
8065	0
8066	0
8067	0
8068	0
8069	0
8070	0
8071	0
8072	0
8073	0
8074	0
8075	0
8076	0
8077	0
8078	0
8079	0
8080	0
8081	0
8082	0
8083	0
8084	0
8085	0
8086	0
8087	0
8088	0
8089	0
8090	0
8091	0
8092	0
8093	0
8094	0
8095	0
8096	0
8097	0
8098	0
8099	0
8100	0
8101	0
8102	0
8103	0
8104	0
8105	0
8106	0
8107	0
8108	0
8109	0
8110	0
8111	0
8112	0
8113	0
8114	0
8115	0
8116	0
8117	0
8118	0
8119	0
8120	0
8121	0
8122	0
8123	0
8124	0
8125	0
8126	0
8127	0
8128	0
8129	0
8130	0
8131	0
8132	0
8133	0
8134	0
8135	0
8136	0
8137	0
8138	0
8139	0
8140	0
8141	0
8142	0
8143	0
8144	0
8145	0
8146	0
8147	0
8148	0
8149	0
8150	0
8151	0
8152	0
8153	0
8154	0
8155	0
8156	0
8157	0
8158	0
8159	0
8160	0
8161	0
8162	0
8163	0
8164	0
8165	0
8166	0
8167	0
8168	0
8169	0
8170	0
8171	0
8172	0
8173	0
8174	0
8175	0
8176	0
8177	0
8178	0
8179	0
8180	0
8181	0
8182	0
8183	0
8184	0
8185	0
8186	0
8187	0
8188	0
8189	0
8190	0
8191	0
