0	0
1	0
2	0
3	0
4	0
5	0
6	0
7	0
8	0
9	0
10	0
11	0
12	0
13	0
14	0
15	0
16	0
17	0
18	0
19	0
20	0
21	0
22	0
23	0
24	0
25	0
26	0
27	0
28	0
29	0
30	0
31	0
32	0
33	0
34	0
35	0
36	0
37	0
38	0
39	0
40	0
41	0
42	0
43	0
44	0
45	0
46	0
47	0
48	0
49	0
50	0
51	0
52	0
53	0
54	0
55	0
56	0
57	0
58	0
59	201
60	566
61	608
62	634
63	579
64	587
65	555
66	513
67	525
68	495
69	492
70	506
71	486
72	441
73	439
74	443
75	404
76	418
77	358
78	405
79	382
80	371
81	358
82	375
83	350
84	327
85	335
86	387
87	346
88	347
89	300
90	325
91	321
92	374
93	337
94	349
95	314
96	278
97	301
98	276
99	313
100	287
101	307
102	309
103	321
104	318
105	282
106	297
107	300
108	314
109	305
110	304
111	333
112	320
113	291
114	337
115	425
116	471
117	349
118	344
119	403
120	385
121	316
122	345
123	357
124	338
125	342
126	360
127	329
128	343
129	364
130	359
131	445
132	401
133	479
134	442
135	375
136	361
137	372
138	363
139	350
140	329
141	382
142	391
143	399
144	419
145	369
146	398
147	419
148	381
149	386
150	456
151	368
152	479
153	779
154	714
155	526
156	403
157	385
158	376
159	386
160	410
161	416
162	409
163	371
164	400
165	397
166	408
167	400
168	372
169	392
170	441
171	418
172	392
173	390
174	394
175	415
176	412
177	388
178	445
179	452
180	396
181	406
182	414
183	360
184	370
185	409
186	390
187	375
188	408
189	390
190	383
191	448
192	387
193	381
194	405
195	423
196	433
197	397
198	394
199	392
200	372
201	415
202	392
203	389
204	388
205	394
206	377
207	360
208	392
209	400
210	375
211	364
212	375
213	388
214	447
215	454
216	426
217	417
218	368
219	407
220	456
221	403
222	343
223	397
224	370
225	357
226	361
227	402
228	337
229	408
230	397
231	368
232	370
233	374
234	364
235	344
236	372
237	380
238	377
239	359
240	374
241	334
242	337
243	385
244	369
245	353
246	378
247	329
248	357
249	342
250	341
251	297
252	350
253	371
254	325
255	356
256	344
257	325
258	345
259	331
260	358
261	323
262	356
263	347
264	327
265	303
266	354
267	315
268	340
269	345
270	389
271	366
272	320
273	467
274	677
275	521
276	339
277	320
278	302
279	291
280	337
281	322
282	279
283	309
284	319
285	346
286	318
287	272
288	346
289	344
290	382
291	366
292	287
293	307
294	340
295	313
296	323
297	313
298	292
299	295
300	323
301	308
302	272
303	296
304	308
305	307
306	292
307	289
308	318
309	288
310	278
311	269
312	287
313	275
314	281
315	272
316	286
317	256
318	256
319	256
320	284
321	248
322	254
323	317
324	252
325	299
326	264
327	289
328	255
329	262
330	235
331	273
332	267
333	236
334	270
335	231
336	263
337	233
338	274
339	251
340	250
341	286
342	396
343	427
344	296
345	235
346	297
347	342
348	292
349	258
350	242
351	225
352	240
353	239
354	246
355	217
356	233
357	220
358	223
359	232
360	227
361	221
362	229
363	215
364	225
365	242
366	210
367	223
368	229
369	208
370	210
371	222
372	204
373	206
374	216
375	202
376	192
377	211
378	199
379	189
380	207
381	208
382	212
383	205
384	244
385	211
386	202
387	210
388	194
389	188
390	215
391	200
392	204
393	207
394	220
395	221
396	190
397	196
398	181
399	196
400	188
401	179
402	191
403	209
404	163
405	191
406	182
407	211
408	159
409	185
410	196
411	197
412	187
413	181
414	215
415	289
416	346
417	242
418	185
419	196
420	189
421	186
422	183
423	197
424	199
425	190
426	190
427	191
428	176
429	155
430	162
431	149
432	164
433	191
434	181
435	191
436	174
437	153
438	173
439	158
440	151
441	161
442	162
443	174
444	180
445	168
446	175
447	158
448	185
449	178
450	157
451	170
452	157
453	151
454	151
455	164
456	169
457	166
458	173
459	163
460	194
461	158
462	147
463	155
464	181
465	143
466	150
467	147
468	159
469	156
470	163
471	198
472	180
473	163
474	135
475	164
476	151
477	171
478	144
479	151
480	165
481	165
482	141
483	144
484	134
485	145
486	134
487	179
488	248
489	429
490	340
491	177
492	141
493	144
494	120
495	127
496	150
497	134
498	135
499	130
500	145
501	136
502	137
503	154
504	134
505	141
506	125
507	153
508	124
509	129
510	151
511	137
512	133
513	120
514	118
515	147
516	130
517	117
518	122
519	131
520	142
521	104
522	160
523	145
524	130
525	130
526	120
527	155
528	127
529	115
530	131
531	135
532	124
533	142
534	137
535	124
536	117
537	133
538	140
539	120
540	139
541	129
542	117
543	138
544	119
545	105
546	115
547	126
548	112
549	121
550	103
551	112
552	120
553	102
554	146
555	119
556	115
557	133
558	107
559	126
560	119
561	120
562	116
563	113
564	134
565	125
566	108
567	120
568	109
569	125
570	118
571	116
572	120
573	109
574	133
575	102
576	141
577	134
578	101
579	110
580	107
581	117
582	96
583	106
584	127
585	112
586	95
587	94
588	108
589	102
590	83
591	102
592	89
593	102
594	121
595	97
596	117
597	94
598	99
599	84
600	95
601	118
602	88
603	112
604	116
605	107
606	101
607	105
608	106
609	97
610	104
611	107
612	118
613	103
614	92
615	104
616	92
617	110
618	100
619	101
620	106
621	89
622	94
623	88
624	88
625	99
626	107
627	82
628	94
629	84
630	94
631	86
632	101
633	99
634	98
635	89
636	93
637	101
638	86
639	111
640	92
641	85
642	86
643	75
644	91
645	90
646	114
647	98
648	91
649	93
650	80
651	90
652	94
653	99
654	105
655	86
656	78
657	71
658	101
659	77
660	73
661	88
662	83
663	87
664	99
665	81
666	105
667	94
668	83
669	98
670	89
671	87
672	94
673	68
674	91
675	76
676	80
677	88
678	104
679	73
680	79
681	84
682	80
683	82
684	80
685	92
686	74
687	88
688	92
689	73
690	87
691	128
692	132
693	246
694	400
695	501
696	458
697	297
698	166
699	113
700	85
701	86
702	84
703	87
704	88
705	69
706	74
707	89
708	75
709	67
710	75
711	75
712	74
713	79
714	72
715	84
716	78
717	70
718	75
719	74
720	68
721	74
722	71
723	82
724	72
725	64
726	67
727	80
728	79
729	78
730	67
731	71
732	86
733	64
734	80
735	81
736	63
737	82
738	67
739	73
740	74
741	68
742	70
743	72
744	74
745	92
746	72
747	76
748	85
749	78
750	71
751	69
752	91
753	59
754	79
755	80
756	75
757	72
758	69
759	77
760	63
761	70
762	70
763	79
764	88
765	94
766	82
767	87
768	71
769	79
770	76
771	100
772	77
773	97
774	68
775	91
776	59
777	87
778	68
779	76
780	67
781	72
782	75
783	64
784	63
785	69
786	82
787	79
788	149
789	183
790	106
791	68
792	58
793	54
794	67
795	53
796	78
797	79
798	64
799	49
800	57
801	71
802	71
803	88
804	93
805	84
806	108
807	86
808	85
809	78
810	97
811	88
812	91
813	90
814	87
815	85
816	84
817	98
818	80
819	80
820	87
821	146
822	288
823	308
824	170
825	97
826	79
827	85
828	67
829	95
830	70
831	67
832	59
833	72
834	69
835	73
836	69
837	73
838	59
839	57
840	70
841	68
842	84
843	64
844	59
845	61
846	58
847	54
848	67
849	67
850	56
851	78
852	63
853	63
854	63
855	58
856	58
857	63
858	58
859	53
860	46
861	52
862	57
863	58
864	47
865	66
866	56
867	55
868	41
869	48
870	67
871	58
872	51
873	53
874	61
875	52
876	50
877	71
878	45
879	62
880	49
881	61
882	66
883	57
884	64
885	57
886	59
887	58
888	62
889	54
890	62
891	56
892	69
893	59
894	59
895	56
896	61
897	68
898	53
899	62
900	61
901	54
902	50
903	54
904	69
905	58
906	53
907	54
908	55
909	64
910	57
911	53
912	63
913	59
914	49
915	58
916	56
917	46
918	59
919	50
920	49
921	52
922	49
923	59
924	49
925	48
926	53
927	53
928	65
929	72
930	71
931	79
932	45
933	75
934	69
935	75
936	57
937	69
938	70
939	58
940	58
941	69
942	74
943	61
944	74
945	54
946	65
947	67
948	55
949	52
950	63
951	71
952	54
953	54
954	54
955	56
956	69
957	51
958	66
959	55
960	70
961	46
962	59
963	63
964	50
965	63
966	54
967	54
968	46
969	61
970	54
971	40
972	52
973	62
974	75
975	77
976	54
977	49
978	45
979	45
980	43
981	50
982	42
983	50
984	44
985	51
986	54
987	36
988	42
989	45
990	53
991	41
992	45
993	45
994	62
995	45
996	48
997	51
998	37
999	49
1000	43
1001	42
1002	52
1003	44
1004	50
1005	45
1006	40
1007	50
1008	53
1009	48
1010	59
1011	47
1012	39
1013	53
1014	42
1015	38
1016	55
1017	39
1018	56
1019	40
1020	33
1021	30
1022	51
1023	28
1024	44
1025	57
1026	58
1027	52
1028	56
1029	68
1030	59
1031	43
1032	49
1033	64
1034	45
1035	44
1036	42
1037	45
1038	43
1039	43
1040	33
1041	37
1042	40
1043	45
1044	35
1045	38
1046	55
1047	50
1048	43
1049	46
1050	53
1051	59
1052	48
1053	40
1054	42
1055	38
1056	46
1057	51
1058	38
1059	49
1060	49
1061	37
1062	43
1063	48
1064	55
1065	39
1066	36
1067	44
1068	34
1069	41
1070	39
1071	46
1072	61
1073	69
1074	57
1075	60
1076	44
1077	48
1078	32
1079	54
1080	47
1081	41
1082	48
1083	37
1084	43
1085	44
1086	40
1087	37
1088	45
1089	37
1090	37
1091	40
1092	38
1093	41
1094	37
1095	50
1096	41
1097	45
1098	42
1099	39
1100	31
1101	36
1102	44
1103	37
1104	32
1105	43
1106	38
1107	40
1108	37
1109	42
1110	37
1111	38
1112	40
1113	47
1114	55
1115	44
1116	53
1117	41
1118	58
1119	46
1120	42
1121	42
1122	56
1123	60
1124	47
1125	43
1126	61
1127	44
1128	36
1129	53
1130	41
1131	43
1132	34
1133	35
1134	42
1135	28
1136	42
1137	39
1138	40
1139	33
1140	42
1141	37
1142	40
1143	46
1144	29
1145	39
1146	38
1147	38
1148	57
1149	48
1150	35
1151	39
1152	52
1153	44
1154	29
1155	46
1156	35
1157	37
1158	36
1159	36
1160	34
1161	31
1162	33
1163	47
1164	42
1165	37
1166	30
1167	35
1168	30
1169	32
1170	41
1171	31
1172	46
1173	39
1174	51
1175	39
1176	41
1177	36
1178	39
1179	35
1180	44
1181	26
1182	30
1183	40
1184	36
1185	33
1186	30
1187	26
1188	32
1189	39
1190	36
1191	45
1192	36
1193	45
1194	31
1195	35
1196	25
1197	50
1198	34
1199	41
1200	24
1201	30
1202	35
1203	39
1204	35
1205	43
1206	46
1207	36
1208	26
1209	28
1210	20
1211	36
1212	55
1213	87
1214	101
1215	54
1216	46
1217	39
1218	40
1219	34
1220	41
1221	32
1222	33
1223	26
1224	33
1225	33
1226	39
1227	33
1228	24
1229	28
1230	40
1231	29
1232	37
1233	46
1234	27
1235	41
1236	31
1237	35
1238	32
1239	35
1240	42
1241	39
1242	44
1243	48
1244	45
1245	36
1246	30
1247	30
1248	34
1249	45
1250	39
1251	29
1252	27
1253	42
1254	30
1255	25
1256	35
1257	23
1258	30
1259	34
1260	36
1261	32
1262	25
1263	31
1264	27
1265	37
1266	29
1267	27
1268	36
1269	28
1270	30
1271	28
1272	23
1273	36
1274	33
1275	38
1276	25
1277	29
1278	37
1279	43
1280	39
1281	31
1282	38
1283	40
1284	39
1285	29
1286	43
1287	41
1288	60
1289	68
1290	42
1291	32
1292	30
1293	29
1294	28
1295	24
1296	30
1297	30
1298	14
1299	40
1300	25
1301	37
1302	27
1303	28
1304	32
1305	28
1306	33
1307	20
1308	27
1309	28
1310	37
1311	26
1312	33
1313	39
1314	31
1315	24
1316	32
1317	27
1318	27
1319	26
1320	25
1321	24
1322	21
1323	29
1324	38
1325	38
1326	23
1327	24
1328	38
1329	40
1330	48
1331	39
1332	36
1333	27
1334	28
1335	29
1336	35
1337	21
1338	30
1339	24
1340	18
1341	29
1342	25
1343	28
1344	28
1345	33
1346	26
1347	32
1348	36
1349	36
1350	26
1351	47
1352	19
1353	28
1354	26
1355	36
1356	35
1357	32
1358	33
1359	27
1360	31
1361	24
1362	21
1363	34
1364	22
1365	44
1366	24
1367	22
1368	24
1369	31
1370	31
1371	25
1372	31
1373	26
1374	36
1375	29
1376	34
1377	23
1378	28
1379	29
1380	16
1381	20
1382	29
1383	31
1384	26
1385	34
1386	29
1387	29
1388	26
1389	30
1390	24
1391	30
1392	34
1393	33
1394	19
1395	33
1396	33
1397	17
1398	32
1399	39
1400	28
1401	39
1402	20
1403	26
1404	24
1405	38
1406	25
1407	27
1408	30
1409	22
1410	25
1411	30
1412	33
1413	27
1414	32
1415	28
1416	26
1417	28
1418	37
1419	26
1420	26
1421	27
1422	23
1423	26
1424	30
1425	24
1426	22
1427	26
1428	26
1429	33
1430	28
1431	31
1432	28
1433	21
1434	21
1435	30
1436	32
1437	29
1438	16
1439	17
1440	24
1441	29
1442	23
1443	30
1444	29
1445	25
1446	25
1447	28
1448	32
1449	32
1450	32
1451	20
1452	25
1453	23
1454	22
1455	25
1456	26
1457	36
1458	24
1459	22
1460	28
1461	25
1462	32
1463	24
1464	21
1465	25
1466	25
1467	22
1468	27
1469	28
1470	21
1471	29
1472	26
1473	21
1474	26
1475	29
1476	30
1477	14
1478	33
1479	24
1480	37
1481	28
1482	34
1483	59
1484	91
1485	86
1486	64
1487	32
1488	24
1489	23
1490	23
1491	30
1492	30
1493	33
1494	34
1495	29
1496	25
1497	27
1498	26
1499	15
1500	27
1501	26
1502	31
1503	24
1504	14
1505	22
1506	24
1507	25
1508	24
1509	23
1510	23
1511	20
1512	21
1513	18
1514	29
1515	22
1516	28
1517	26
1518	19
1519	30
1520	33
1521	28
1522	29
1523	25
1524	20
1525	21
1526	34
1527	29
1528	26
1529	22
1530	34
1531	32
1532	31
1533	31
1534	17
1535	28
1536	23
1537	23
1538	26
1539	29
1540	25
1541	24
1542	30
1543	27
1544	24
1545	28
1546	25
1547	26
1548	19
1549	28
1550	17
1551	31
1552	25
1553	33
1554	20
1555	30
1556	19
1557	24
1558	15
1559	19
1560	20
1561	25
1562	18
1563	24
1564	27
1565	24
1566	21
1567	13
1568	15
1569	21
1570	20
1571	26
1572	20
1573	21
1574	25
1575	26
1576	24
1577	16
1578	16
1579	23
1580	28
1581	17
1582	20
1583	19
1584	14
1585	27
1586	29
1587	23
1588	17
1589	27
1590	31
1591	17
1592	27
1593	30
1594	26
1595	19
1596	13
1597	29
1598	24
1599	29
1600	30
1601	26
1602	30
1603	22
1604	21
1605	22
1606	27
1607	31
1608	27
1609	25
1610	26
1611	20
1612	23
1613	23
1614	26
1615	23
1616	28
1617	18
1618	22
1619	23
1620	17
1621	33
1622	23
1623	31
1624	28
1625	27
1626	23
1627	29
1628	22
1629	28
1630	22
1631	25
1632	26
1633	20
1634	24
1635	26
1636	42
1637	53
1638	37
1639	37
1640	30
1641	24
1642	15
1643	22
1644	25
1645	13
1646	21
1647	17
1648	27
1649	21
1650	23
1651	21
1652	20
1653	19
1654	24
1655	22
1656	24
1657	20
1658	15
1659	21
1660	27
1661	32
1662	21
1663	14
1664	21
1665	16
1666	14
1667	17
1668	18
1669	20
1670	18
1671	20
1672	23
1673	19
1674	12
1675	19
1676	17
1677	20
1678	35
1679	29
1680	21
1681	15
1682	14
1683	25
1684	31
1685	19
1686	20
1687	17
1688	23
1689	24
1690	18
1691	29
1692	17
1693	24
1694	28
1695	10
1696	18
1697	18
1698	20
1699	20
1700	15
1701	19
1702	19
1703	20
1704	19
1705	22
1706	26
1707	19
1708	15
1709	20
1710	16
1711	18
1712	16
1713	28
1714	18
1715	19
1716	13
1717	19
1718	19
1719	15
1720	11
1721	27
1722	18
1723	14
1724	18
1725	17
1726	16
1727	20
1728	13
1729	18
1730	15
1731	21
1732	24
1733	12
1734	15
1735	17
1736	16
1737	13
1738	17
1739	16
1740	17
1741	18
1742	20
1743	15
1744	11
1745	17
1746	17
1747	15
1748	20
1749	9
1750	14
1751	19
1752	15
1753	22
1754	29
1755	28
1756	18
1757	27
1758	26
1759	23
1760	26
1761	16
1762	18
1763	20
1764	14
1765	20
1766	14
1767	15
1768	15
1769	18
1770	16
1771	25
1772	18
1773	23
1774	16
1775	8
1776	16
1777	20
1778	22
1779	11
1780	13
1781	17
1782	17
1783	16
1784	19
1785	18
1786	17
1787	15
1788	7
1789	11
1790	16
1791	21
1792	18
1793	12
1794	15
1795	13
1796	20
1797	16
1798	21
1799	19
1800	19
1801	19
1802	11
1803	22
1804	15
1805	26
1806	16
1807	14
1808	13
1809	21
1810	16
1811	17
1812	17
1813	21
1814	15
1815	17
1816	21
1817	35
1818	37
1819	26
1820	25
1821	14
1822	17
1823	11
1824	23
1825	21
1826	22
1827	15
1828	20
1829	14
1830	14
1831	23
1832	12
1833	15
1834	17
1835	20
1836	12
1837	17
1838	16
1839	16
1840	16
1841	16
1842	15
1843	13
1844	14
1845	15
1846	16
1847	17
1848	23
1849	26
1850	23
1851	16
1852	22
1853	14
1854	10
1855	14
1856	18
1857	27
1858	24
1859	14
1860	15
1861	12
1862	24
1863	13
1864	27
1865	13
1866	21
1867	17
1868	18
1869	20
1870	13
1871	11
1872	13
1873	16
1874	18
1875	18
1876	18
1877	14
1878	11
1879	15
1880	14
1881	14
1882	15
1883	14
1884	16
1885	14
1886	10
1887	15
1888	13
1889	26
1890	17
1891	18
1892	10
1893	16
1894	15
1895	12
1896	14
1897	21
1898	14
1899	14
1900	19
1901	14
1902	13
1903	14
1904	16
1905	14
1906	13
1907	8
1908	20
1909	25
1910	12
1911	11
1912	20
1913	20
1914	14
1915	13
1916	13
1917	9
1918	15
1919	20
1920	14
1921	13
1922	20
1923	20
1924	66
1925	107
1926	123
1927	92
1928	49
1929	20
1930	20
1931	15
1932	21
1933	19
1934	16
1935	14
1936	8
1937	18
1938	14
1939	21
1940	18
1941	16
1942	15
1943	12
1944	11
1945	11
1946	21
1947	10
1948	18
1949	16
1950	13
1951	27
1952	22
1953	14
1954	10
1955	13
1956	14
1957	13
1958	15
1959	15
1960	9
1961	12
1962	12
1963	15
1964	20
1965	14
1966	17
1967	11
1968	20
1969	14
1970	12
1971	16
1972	21
1973	15
1974	21
1975	16
1976	22
1977	9
1978	18
1979	22
1980	20
1981	17
1982	15
1983	13
1984	9
1985	12
1986	12
1987	21
1988	31
1989	23
1990	12
1991	9
1992	16
1993	13
1994	17
1995	16
1996	19
1997	13
1998	10
1999	17
2000	8
2001	14
2002	14
2003	14
2004	14
2005	11
2006	18
2007	22
2008	14
2009	17
2010	8
2011	21
2012	15
2013	10
2014	6
2015	12
2016	22
2017	16
2018	12
2019	14
2020	18
2021	13
2022	18
2023	11
2024	13
2025	11
2026	21
2027	13
2028	12
2029	18
2030	15
2031	16
2032	15
2033	14
2034	17
2035	13
2036	11
2037	15
2038	12
2039	15
2040	19
2041	12
2042	10
2043	15
2044	12
2045	10
2046	19
2047	14
2048	16
2049	13
2050	9
2051	11
2052	20
2053	14
2054	16
2055	12
2056	14
2057	18
2058	11
2059	11
2060	10
2061	10
2062	8
2063	16
2064	17
2065	11
2066	15
2067	18
2068	14
2069	8
2070	17
2071	9
2072	12
2073	20
2074	9
2075	13
2076	14
2077	17
2078	12
2079	16
2080	17
2081	12
2082	17
2083	11
2084	22
2085	11
2086	16
2087	15
2088	13
2089	16
2090	18
2091	23
2092	15
2093	14
2094	23
2095	18
2096	33
2097	29
2098	19
2099	11
2100	11
2101	10
2102	14
2103	5
2104	12
2105	13
2106	14
2107	20
2108	13
2109	15
2110	10
2111	14
2112	16
2113	13
2114	13
2115	8
2116	12
2117	17
2118	10
2119	14
2120	10
2121	10
2122	8
2123	14
2124	10
2125	13
2126	17
2127	7
2128	10
2129	15
2130	8
2131	17
2132	21
2133	10
2134	19
2135	11
2136	20
2137	6
2138	14
2139	12
2140	16
2141	18
2142	10
2143	15
2144	13
2145	20
2146	16
2147	25
2148	5
2149	11
2150	12
2151	23
2152	14
2153	15
2154	8
2155	11
2156	9
2157	12
2158	15
2159	7
2160	10
2161	16
2162	12
2163	14
2164	7
2165	10
2166	7
2167	11
2168	8
2169	12
2170	6
2171	9
2172	16
2173	15
2174	13
2175	11
2176	11
2177	13
2178	11
2179	13
2180	5
2181	18
2182	10
2183	8
2184	13
2185	15
2186	14
2187	21
2188	10
2189	7
2190	13
2191	11
2192	5
2193	6
2194	10
2195	19
2196	8
2197	12
2198	13
2199	8
2200	5
2201	13
2202	11
2203	14
2204	13
2205	14
2206	10
2207	14
2208	11
2209	13
2210	12
2211	9
2212	6
2213	9
2214	8
2215	10
2216	17
2217	8
2218	7
2219	8
2220	19
2221	7
2222	12
2223	10
2224	13
2225	16
2226	18
2227	18
2228	12
2229	8
2230	11
2231	15
2232	8
2233	11
2234	12
2235	13
2236	10
2237	15
2238	15
2239	15
2240	10
2241	16
2242	11
2243	11
2244	8
2245	8
2246	9
2247	6
2248	12
2249	12
2250	20
2251	7
2252	8
2253	12
2254	16
2255	17
2256	5
2257	9
2258	15
2259	10
2260	11
2261	8
2262	10
2263	10
2264	12
2265	15
2266	7
2267	12
2268	21
2269	13
2270	12
2271	7
2272	13
2273	11
2274	17
2275	22
2276	14
2277	12
2278	7
2279	10
2280	11
2281	12
2282	7
2283	9
2284	9
2285	14
2286	10
2287	16
2288	9
2289	13
2290	10
2291	9
2292	14
2293	8
2294	5
2295	10
2296	6
2297	4
2298	10
2299	8
2300	10
2301	9
2302	9
2303	13
2304	7
2305	11
2306	12
2307	11
2308	11
2309	5
2310	9
2311	5
2312	12
2313	13
2314	15
2315	12
2316	10
2317	22
2318	45
2319	70
2320	75
2321	51
2322	18
2323	6
2324	14
2325	8
2326	11
2327	8
2328	7
2329	8
2330	9
2331	6
2332	6
2333	4
2334	11
2335	12
2336	8
2337	9
2338	15
2339	18
2340	13
2341	10
2342	10
2343	9
2344	9
2345	8
2346	9
2347	7
2348	11
2349	7
2350	8
2351	14
2352	14
2353	12
2354	13
2355	6
2356	6
2357	6
2358	9
2359	8
2360	10
2361	7
2362	9
2363	11
2364	13
2365	6
2366	12
2367	10
2368	9
2369	6
2370	4
2371	10
2372	10
2373	10
2374	8
2375	18
2376	13
2377	7
2378	11
2379	8
2380	9
2381	11
2382	11
2383	11
2384	10
2385	12
2386	8
2387	7
2388	12
2389	8
2390	10
2391	12
2392	9
2393	9
2394	13
2395	12
2396	10
2397	13
2398	10
2399	8
2400	8
2401	9
2402	9
2403	9
2404	7
2405	8
2406	12
2407	5
2408	4
2409	8
2410	7
2411	8
2412	6
2413	11
2414	15
2415	17
2416	9
2417	8
2418	4
2419	13
2420	12
2421	6
2422	9
2423	11
2424	10
2425	11
2426	15
2427	19
2428	13
2429	15
2430	13
2431	9
2432	9
2433	10
2434	10
2435	10
2436	9
2437	9
2438	8
2439	14
2440	3
2441	12
2442	8
2443	7
2444	10
2445	8
2446	8
2447	9
2448	6
2449	6
2450	8
2451	7
2452	6
2453	10
2454	7
2455	4
2456	5
2457	10
2458	7
2459	18
2460	10
2461	11
2462	20
2463	8
2464	9
2465	10
2466	5
2467	12
2468	10
2469	4
2470	9
2471	5
2472	15
2473	9
2474	9
2475	12
2476	8
2477	9
2478	7
2479	18
2480	14
2481	9
2482	12
2483	7
2484	10
2485	7
2486	10
2487	11
2488	6
2489	8
2490	6
2491	8
2492	7
2493	9
2494	14
2495	9
2496	8
2497	9
2498	12
2499	8
2500	10
2501	5
2502	14
2503	3
2504	6
2505	9
2506	11
2507	5
2508	9
2509	7
2510	4
2511	15
2512	8
2513	8
2514	7
2515	3
2516	16
2517	10
2518	12
2519	12
2520	12
2521	6
2522	6
2523	8
2524	3
2525	9
2526	5
2527	6
2528	11
2529	8
2530	14
2531	8
2532	9
2533	7
2534	9
2535	4
2536	10
2537	8
2538	12
2539	9
2540	8
2541	5
2542	13
2543	9
2544	7
2545	5
2546	10
2547	9
2548	11
2549	12
2550	12
2551	14
2552	8
2553	6
2554	12
2555	7
2556	8
2557	7
2558	8
2559	6
2560	12
2561	15
2562	9
2563	8
2564	6
2565	9
2566	6
2567	8
2568	7
2569	10
2570	8
2571	17
2572	9
2573	8
2574	12
2575	6
2576	21
2577	9
2578	7
2579	11
2580	7
2581	14
2582	11
2583	9
2584	14
2585	9
2586	10
2587	9
2588	9
2589	8
2590	11
2591	15
2592	7
2593	7
2594	6
2595	13
2596	14
2597	4
2598	7
2599	10
2600	3
2601	8
2602	10
2603	7
2604	10
2605	5
2606	6
2607	5
2608	6
2609	6
2610	13
2611	7
2612	10
2613	9
2614	6
2615	10
2616	5
2617	6
2618	10
2619	12
2620	9
2621	8
2622	12
2623	14
2624	8
2625	13
2626	9
2627	5
2628	9
2629	10
2630	7
2631	5
2632	16
2633	9
2634	11
2635	7
2636	8
2637	7
2638	12
2639	14
2640	8
2641	8
2642	11
2643	8
2644	3
2645	9
2646	8
2647	7
2648	10
2649	7
2650	15
2651	4
2652	7
2653	7
2654	6
2655	10
2656	12
2657	7
2658	7
2659	4
2660	6
2661	15
2662	6
2663	7
2664	4
2665	8
2666	6
2667	7
2668	9
2669	9
2670	9
2671	8
2672	11
2673	9
2674	7
2675	11
2676	7
2677	15
2678	7
2679	5
2680	8
2681	8
2682	5
2683	10
2684	6
2685	19
2686	7
2687	9
2688	2
2689	8
2690	9
2691	9
2692	12
2693	8
2694	15
2695	6
2696	5
2697	9
2698	6
2699	13
2700	4
2701	9
2702	8
2703	9
2704	12
2705	11
2706	8
2707	3
2708	8
2709	11
2710	9
2711	7
2712	11
2713	9
2714	11
2715	13
2716	11
2717	5
2718	8
2719	9
2720	10
2721	6
2722	12
2723	3
2724	3
2725	8
2726	9
2727	7
2728	10
2729	4
2730	10
2731	7
2732	5
2733	5
2734	8
2735	7
2736	9
2737	9
2738	9
2739	10
2740	5
2741	7
2742	6
2743	5
2744	3
2745	6
2746	10
2747	6
2748	7
2749	7
2750	10
2751	5
2752	10
2753	11
2754	10
2755	11
2756	17
2757	13
2758	23
2759	25
2760	35
2761	8
2762	13
2763	5
2764	7
2765	9
2766	8
2767	8
2768	5
2769	15
2770	7
2771	7
2772	6
2773	5
2774	10
2775	11
2776	9
2777	14
2778	11
2779	11
2780	7
2781	9
2782	8
2783	13
2784	6
2785	3
2786	11
2787	7
2788	7
2789	11
2790	7
2791	9
2792	9
2793	6
2794	4
2795	8
2796	12
2797	6
2798	6
2799	8
2800	3
2801	8
2802	8
2803	7
2804	3
2805	5
2806	8
2807	8
2808	15
2809	7
2810	8
2811	8
2812	9
2813	8
2814	9
2815	10
2816	7
2817	4
2818	4
2819	4
2820	9
2821	8
2822	9
2823	10
2824	9
2825	9
2826	5
2827	8
2828	11
2829	4
2830	8
2831	7
2832	8
2833	4
2834	7
2835	7
2836	8
2837	10
2838	9
2839	8
2840	7
2841	10
2842	7
2843	9
2844	11
2845	11
2846	5
2847	13
2848	2
2849	8
2850	12
2851	2
2852	12
2853	10
2854	5
2855	8
2856	1
2857	6
2858	6
2859	7
2860	11
2861	7
2862	6
2863	8
2864	8
2865	5
2866	6
2867	6
2868	6
2869	7
2870	10
2871	6
2872	7
2873	4
2874	1
2875	4
2876	7
2877	9
2878	10
2879	10
2880	7
2881	8
2882	8
2883	12
2884	12
2885	3
2886	11
2887	14
2888	18
2889	27
2890	25
2891	12
2892	10
2893	8
2894	11
2895	14
2896	10
2897	7
2898	9
2899	4
2900	8
2901	10
2902	8
2903	6
2904	4
2905	7
2906	3
2907	8
2908	6
2909	11
2910	13
2911	5
2912	5
2913	9
2914	14
2915	9
2916	11
2917	5
2918	7
2919	9
2920	5
2921	7
2922	7
2923	6
2924	11
2925	10
2926	4
2927	7
2928	9
2929	5
2930	8
2931	7
2932	8
2933	5
2934	5
2935	7
2936	10
2937	6
2938	9
2939	14
2940	5
2941	7
2942	4
2943	9
2944	10
2945	9
2946	8
2947	9
2948	4
2949	6
2950	7
2951	11
2952	7
2953	5
2954	13
2955	2
2956	14
2957	4
2958	5
2959	11
2960	10
2961	7
2962	8
2963	9
2964	11
2965	7
2966	10
2967	6
2968	6
2969	5
2970	7
2971	14
2972	9
2973	7
2974	7
2975	8
2976	7
2977	3
2978	9
2979	5
2980	7
2981	6
2982	5
2983	10
2984	12
2985	5
2986	9
2987	6
2988	6
2989	8
2990	7
2991	12
2992	9
2993	4
2994	3
2995	8
2996	5
2997	7
2998	11
2999	6
3000	8
3001	6
3002	7
3003	7
3004	6
3005	8
3006	6
3007	12
3008	5
3009	14
3010	5
3011	7
3012	9
3013	8
3014	4
3015	8
3016	5
3017	9
3018	8
3019	4
3020	14
3021	9
3022	9
3023	4
3024	7
3025	4
3026	8
3027	8
3028	8
3029	14
3030	4
3031	7
3032	7
3033	9
3034	4
3035	6
3036	6
3037	9
3038	6
3039	11
3040	5
3041	5
3042	7
3043	6
3044	8
3045	10
3046	4
3047	6
3048	10
3049	9
3050	7
3051	12
3052	9
3053	5
3054	10
3055	6
3056	6
3057	9
3058	6
3059	14
3060	7
3061	10
3062	14
3063	6
3064	9
3065	4
3066	10
3067	9
3068	15
3069	10
3070	6
3071	4
3072	5
3073	7
3074	9
3075	12
3076	6
3077	10
3078	7
3079	5
3080	5
3081	6
3082	8
3083	11
3084	11
3085	7
3086	5
3087	2
3088	10
3089	11
3090	9
3091	11
3092	9
3093	9
3094	2
3095	6
3096	7
3097	6
3098	8
3099	8
3100	4
3101	9
3102	8
3103	8
3104	7
3105	10
3106	7
3107	7
3108	8
3109	7
3110	5
3111	5
3112	7
3113	9
3114	10
3115	7
3116	9
3117	6
3118	5
3119	9
3120	5
3121	7
3122	6
3123	5
3124	8
3125	6
3126	5
3127	0
3128	4
3129	8
3130	6
3131	4
3132	4
3133	11
3134	3
3135	9
3136	4
3137	6
3138	10
3139	7
3140	4
3141	8
3142	6
3143	5
3144	5
3145	4
3146	5
3147	9
3148	9
3149	5
3150	5
3151	6
3152	4
3153	5
3154	9
3155	7
3156	2
3157	4
3158	4
3159	3
3160	6
3161	5
3162	8
3163	4
3164	9
3165	2
3166	3
3167	6
3168	5
3169	7
3170	9
3171	6
3172	6
3173	8
3174	6
3175	4
3176	7
3177	4
3178	10
3179	3
3180	5
3181	7
3182	3
3183	4
3184	3
3185	13
3186	7
3187	7
3188	3
3189	6
3190	7
3191	3
3192	5
3193	8
3194	8
3195	4
3196	2
3197	7
3198	8
3199	4
3200	4
3201	3
3202	6
3203	12
3204	9
3205	10
3206	8
3207	9
3208	4
3209	9
3210	5
3211	6
3212	6
3213	12
3214	3
3215	14
3216	5
3217	7
3218	7
3219	4
3220	12
3221	6
3222	2
3223	8
3224	6
3225	5
3226	4
3227	10
3228	4
3229	5
3230	3
3231	5
3232	7
3233	1
3234	2
3235	2
3236	8
3237	6
3238	6
3239	9
3240	5
3241	8
3242	7
3243	3
3244	4
3245	4
3246	3
3247	5
3248	6
3249	3
3250	4
3251	3
3252	2
3253	1
3254	3
3255	5
3256	1
3257	4
3258	5
3259	9
3260	6
3261	5
3262	4
3263	6
3264	7
3265	4
3266	3
3267	7
3268	8
3269	7
3270	6
3271	3
3272	9
3273	2
3274	6
3275	3
3276	5
3277	3
3278	1
3279	3
3280	6
3281	7
3282	7
3283	5
3284	10
3285	4
3286	2
3287	7
3288	4
3289	5
3290	4
3291	8
3292	5
3293	5
3294	2
3295	4
3296	2
3297	5
3298	1
3299	5
3300	3
3301	2
3302	3
3303	5
3304	3
3305	3
3306	4
3307	1
3308	7
3309	6
3310	3
3311	4
3312	5
3313	4
3314	1
3315	1
3316	7
3317	6
3318	6
3319	4
3320	5
3321	7
3322	10
3323	3
3324	1
3325	1
3326	3
3327	3
3328	3
3329	5
3330	7
3331	3
3332	4
3333	5
3334	3
3335	2
3336	2
3337	4
3338	6
3339	2
3340	1
3341	3
3342	4
3343	5
3344	1
3345	7
3346	7
3347	5
3348	5
3349	4
3350	6
3351	2
3352	1
3353	3
3354	5
3355	5
3356	0
3357	4
3358	6
3359	4
3360	2
3361	4
3362	3
3363	4
3364	5
3365	1
3366	3
3367	6
3368	2
3369	1
3370	6
3371	5
3372	4
3373	3
3374	4
3375	4
3376	5
3377	2
3378	6
3379	3
3380	3
3381	2
3382	4
3383	5
3384	5
3385	5
3386	2
3387	3
3388	4
3389	2
3390	3
3391	4
3392	1
3393	4
3394	2
3395	4
3396	2
3397	2
3398	4
3399	9
3400	4
3401	6
3402	6
3403	4
3404	5
3405	4
3406	4
3407	2
3408	4
3409	4
3410	5
3411	3
3412	2
3413	4
3414	7
3415	3
3416	4
3417	10
3418	28
3419	68
3420	122
3421	146
3422	133
3423	80
3424	21
3425	8
3426	7
3427	4
3428	2
3429	2
3430	5
3431	2
3432	3
3433	3
3434	3
3435	3
3436	8
3437	3
3438	3
3439	5
3440	3
3441	1
3442	4
3443	4
3444	2
3445	1
3446	3
3447	0
3448	2
3449	3
3450	3
3451	4
3452	7
3453	1
3454	7
3455	5
3456	3
3457	6
3458	5
3459	3
3460	3
3461	3
3462	3
3463	0
3464	0
3465	0
3466	4
3467	2
3468	2
3469	3
3470	5
3471	6
3472	6
3473	2
3474	4
3475	2
3476	4
3477	3
3478	3
3479	4
3480	2
3481	3
3482	5
3483	3
3484	3
3485	3
3486	2
3487	4
3488	5
3489	4
3490	4
3491	1
3492	4
3493	4
3494	6
3495	2
3496	4
3497	3
3498	5
3499	6
3500	6
3501	2
3502	2
3503	2
3504	2
3505	2
3506	4
3507	4
3508	3
3509	6
3510	7
3511	3
3512	3
3513	4
3514	2
3515	3
3516	3
3517	2
3518	6
3519	5
3520	7
3521	3
3522	2
3523	4
3524	5
3525	1
3526	1
3527	6
3528	5
3529	5
3530	1
3531	3
3532	1
3533	3
3534	1
3535	0
3536	1
3537	4
3538	3
3539	9
3540	4
3541	5
3542	5
3543	2
3544	7
3545	7
3546	2
3547	5
3548	2
3549	6
3550	3
3551	2
3552	2
3553	5
3554	1
3555	4
3556	3
3557	2
3558	5
3559	3
3560	3
3561	1
3562	3
3563	0
3564	2
3565	6
3566	4
3567	2
3568	4
3569	1
3570	4
3571	4
3572	3
3573	3
3574	5
3575	1
3576	4
3577	8
3578	1
3579	5
3580	2
3581	4
3582	2
3583	2
3584	1
3585	4
3586	7
3587	4
3588	3
3589	0
3590	1
3591	3
3592	1
3593	3
3594	6
3595	1
3596	3
3597	3
3598	4
3599	1
3600	2
3601	3
3602	2
3603	2
3604	4
3605	2
3606	3
3607	2
3608	2
3609	3
3610	1
3611	6
3612	6
3613	2
3614	1
3615	4
3616	8
3617	0
3618	2
3619	3
3620	3
3621	1
3622	4
3623	3
3624	4
3625	5
3626	3
3627	2
3628	4
3629	1
3630	4
3631	2
3632	5
3633	3
3634	3
3635	5
3636	1
3637	3
3638	2
3639	7
3640	4
3641	2
3642	3
3643	1
3644	2
3645	5
3646	4
3647	3
3648	3
3649	5
3650	3
3651	2
3652	2
3653	1
3654	6
3655	6
3656	1
3657	3
3658	4
3659	6
3660	3
3661	2
3662	3
3663	3
3664	3
3665	4
3666	0
3667	4
3668	2
3669	6
3670	1
3671	4
3672	1
3673	2
3674	1
3675	4
3676	6
3677	2
3678	5
3679	2
3680	6
3681	4
3682	3
3683	2
3684	1
3685	0
3686	4
3687	2
3688	3
3689	8
3690	1
3691	3
3692	3
3693	3
3694	2
3695	2
3696	2
3697	5
3698	4
3699	4
3700	5
3701	5
3702	3
3703	3
3704	4
3705	2
3706	2
3707	4
3708	1
3709	6
3710	2
3711	3
3712	4
3713	1
3714	4
3715	2
3716	2
3717	2
3718	5
3719	1
3720	3
3721	1
3722	2
3723	0
3724	4
3725	2
3726	4
3727	2
3728	4
3729	3
3730	1
3731	4
3732	2
3733	6
3734	3
3735	4
3736	3
3737	4
3738	2
3739	4
3740	4
3741	3
3742	4
3743	3
3744	3
3745	1
3746	3
3747	2
3748	5
3749	2
3750	3
3751	2
3752	4
3753	3
3754	1
3755	5
3756	3
3757	4
3758	1
3759	5
3760	2
3761	2
3762	4
3763	2
3764	4
3765	3
3766	0
3767	1
3768	2
3769	4
3770	6
3771	3
3772	4
3773	3
3774	3
3775	1
3776	5
3777	4
3778	3
3779	4
3780	3
3781	2
3782	4
3783	6
3784	3
3785	3
3786	2
3787	2
3788	2
3789	3
3790	1
3791	1
3792	1
3793	4
3794	5
3795	2
3796	5
3797	3
3798	3
3799	4
3800	2
3801	4
3802	1
3803	3
3804	4
3805	3
3806	4
3807	4
3808	3
3809	0
3810	5
3811	3
3812	5
3813	4
3814	3
3815	4
3816	0
3817	5
3818	3
3819	1
3820	2
3821	0
3822	3
3823	1
3824	4
3825	2
3826	3
3827	5
3828	1
3829	8
3830	4
3831	4
3832	4
3833	7
3834	2
3835	2
3836	1
3837	0
3838	2
3839	5
3840	1
3841	5
3842	3
3843	1
3844	2
3845	5
3846	1
3847	1
3848	1
3849	2
3850	1
3851	3
3852	3
3853	4
3854	2
3855	2
3856	3
3857	1
3858	3
3859	2
3860	5
3861	4
3862	7
3863	2
3864	0
3865	5
3866	2
3867	5
3868	5
3869	1
3870	3
3871	3
3872	2
3873	2
3874	1
3875	4
3876	4
3877	1
3878	3
3879	2
3880	4
3881	6
3882	3
3883	1
3884	2
3885	1
3886	3
3887	1
3888	3
3889	3
3890	1
3891	1
3892	3
3893	9
3894	4
3895	4
3896	6
3897	3
3898	2
3899	2
3900	0
3901	0
3902	4
3903	3
3904	6
3905	6
3906	4
3907	6
3908	4
3909	5
3910	5
3911	5
3912	5
3913	2
3914	1
3915	7
3916	2
3917	2
3918	1
3919	1
3920	3
3921	1
3922	2
3923	0
3924	6
3925	5
3926	5
3927	8
3928	3
3929	2
3930	3
3931	2
3932	4
3933	3
3934	2
3935	3
3936	3
3937	5
3938	0
3939	6
3940	1
3941	3
3942	0
3943	0
3944	2
3945	3
3946	6
3947	3
3948	0
3949	3
3950	4
3951	1
3952	5
3953	6
3954	4
3955	3
3956	4
3957	4
3958	2
3959	0
3960	5
3961	2
3962	4
3963	4
3964	1
3965	0
3966	0
3967	3
3968	2
3969	0
3970	2
3971	3
3972	4
3973	3
3974	1
3975	1
3976	1
3977	2
3978	6
3979	4
3980	3
3981	3
3982	2
3983	4
3984	4
3985	1
3986	2
3987	6
3988	0
3989	1
3990	1
3991	3
3992	1
3993	0
3994	3
3995	5
3996	3
3997	6
3998	2
3999	2
4000	3
4001	2
4002	1
4003	3
4004	4
4005	2
4006	2
4007	2
4008	0
4009	4
4010	1
4011	3
4012	3
4013	0
4014	3
4015	2
4016	3
4017	4
4018	1
4019	3
4020	2
4021	2
4022	3
4023	4
4024	3
4025	3
4026	4
4027	2
4028	4
4029	0
4030	1
4031	2
4032	0
4033	0
4034	0
4035	0
4036	0
4037	0
4038	0
4039	0
4040	0
4041	0
4042	0
4043	0
4044	0
4045	0
4046	0
4047	0
4048	0
4049	0
4050	0
4051	0
4052	0
4053	0
4054	0
4055	0
4056	0
4057	0
4058	0
4059	0
4060	0
4061	0
4062	0
4063	0
4064	0
4065	0
4066	0
4067	0
4068	0
4069	0
4070	0
4071	0
4072	0
4073	0
4074	0
4075	0
4076	0
4077	0
4078	0
4079	0
4080	0
4081	0
4082	0
4083	0
4084	0
4085	0
4086	0
4087	0
4088	0
4089	0
4090	0
4091	0
4092	0
4093	0
4094	0
4095	0
