0	0
1	0
2	0
3	0
4	0
5	0
6	0
7	0
8	0
9	0
10	0
11	0
12	0
13	0
14	0
15	0
16	0
17	0
18	0
19	0
20	0
21	0
22	0
23	0
24	0
25	0
26	0
27	0
28	0
29	0
30	0
31	0
32	0
33	0
34	0
35	0
36	0
37	0
38	0
39	0
40	0
41	0
42	0
43	0
44	0
45	0
46	0
47	0
48	0
49	0
50	0
51	0
52	0
53	0
54	0
55	0
56	0
57	0
58	0
59	0
60	0
61	0
62	0
63	0
64	0
65	0
66	0
67	0
68	0
69	0
70	0
71	0
72	0
73	0
74	0
75	0
76	0
77	0
78	0
79	0
80	0
81	0
82	0
83	0
84	0
85	0
86	0
87	0
88	0
89	0
90	0
91	0
92	0
93	0
94	0
95	0
96	0
97	0
98	0
99	0
100	0
101	0
102	0
103	0
104	0
105	0
106	0
107	0
108	0
109	0
110	0
111	0
112	0
113	0
114	0
115	0
116	0
117	0
118	53
119	208
120	367
121	416
122	430
123	438
124	434
125	371
126	397
127	420
128	387
129	388
130	393
131	369
132	363
133	352
134	350
135	345
136	364
137	314
138	334
139	297
140	287
141	317
142	321
143	341
144	315
145	282
146	292
147	274
148	261
149	304
150	331
151	253
152	276
153	262
154	265
155	255
156	250
157	249
158	261
159	244
160	277
161	253
162	241
163	253
164	237
165	234
166	235
167	254
168	249
169	226
170	231
171	255
172	235
173	236
174	227
175	237
176	245
177	222
178	213
179	208
180	222
181	239
182	226
183	208
184	224
185	226
186	237
187	232
188	248
189	238
190	269
191	205
192	193
193	204
194	209
195	204
196	198
197	201
198	208
199	190
200	186
201	198
202	219
203	209
204	204
205	224
206	200
207	198
208	228
209	189
210	209
211	199
212	182
213	204
214	201
215	175
216	204
217	193
218	209
219	215
220	224
221	235
222	227
223	197
224	195
225	190
226	222
227	221
228	225
229	258
230	289
231	307
232	317
233	330
234	278
235	247
236	246
237	248
238	253
239	266
240	297
241	265
242	231
243	235
244	222
245	223
246	212
247	242
248	254
249	235
250	238
251	220
252	229
253	247
254	210
255	226
256	235
257	238
258	233
259	274
260	280
261	262
262	348
263	306
264	271
265	255
266	296
267	314
268	325
269	297
270	284
271	235
272	250
273	274
274	235
275	254
276	277
277	244
278	250
279	259
280	284
281	265
282	251
283	273
284	266
285	293
286	272
287	291
288	250
289	281
290	250
291	266
292	283
293	282
294	282
295	284
296	275
297	277
298	253
299	280
300	295
301	280
302	311
303	284
304	281
305	368
306	464
307	544
308	557
309	534
310	423
311	352
312	277
313	276
314	277
315	277
316	261
317	294
318	262
319	243
320	246
321	272
322	278
323	286
324	278
325	266
326	276
327	288
328	272
329	258
330	264
331	280
332	262
333	295
334	271
335	266
336	257
337	278
338	260
339	280
340	269
341	291
342	245
343	267
344	251
345	321
346	264
347	268
348	296
349	257
350	327
351	273
352	278
353	272
354	272
355	267
356	282
357	299
358	291
359	306
360	283
361	282
362	300
363	311
364	309
365	258
366	283
367	283
368	245
369	250
370	300
371	262
372	296
373	257
374	289
375	270
376	262
377	267
378	278
379	277
380	277
381	286
382	272
383	285
384	310
385	259
386	310
387	305
388	303
389	273
390	241
391	281
392	274
393	253
394	289
395	289
396	272
397	282
398	279
399	261
400	295
401	277
402	241
403	268
404	280
405	283
406	279
407	292
408	275
409	294
410	284
411	268
412	286
413	278
414	291
415	285
416	269
417	253
418	309
419	308
420	279
421	288
422	271
423	260
424	261
425	302
426	275
427	259
428	269
429	338
430	327
431	297
432	253
433	293
434	268
435	281
436	261
437	265
438	268
439	311
440	321
441	326
442	269
443	298
444	286
445	301
446	267
447	263
448	288
449	262
450	276
451	259
452	253
453	250
454	257
455	252
456	264
457	258
458	273
459	263
460	265
461	220
462	250
463	278
464	272
465	225
466	272
467	236
468	272
469	245
470	275
471	235
472	257
473	264
474	244
475	198
476	276
477	262
478	275
479	276
480	264
481	252
482	289
483	264
484	253
485	262
486	238
487	233
488	238
489	268
490	267
491	277
492	248
493	259
494	249
495	246
496	242
497	228
498	251
499	230
500	259
501	262
502	228
503	251
504	250
505	255
506	228
507	253
508	234
509	221
510	257
511	222
512	268
513	241
514	239
515	241
516	245
517	230
518	247
519	278
520	240
521	271
522	260
523	252
524	236
525	240
526	264
527	246
528	249
529	253
530	243
531	223
532	237
533	239
534	231
535	220
536	253
537	199
538	215
539	239
540	220
541	224
542	240
543	253
544	239
545	237
546	313
547	368
548	492
549	458
550	418
551	329
552	261
553	243
554	234
555	183
556	249
557	199
558	221
559	221
560	213
561	211
562	202
563	239
564	240
565	240
566	217
567	220
568	204
569	206
570	232
571	204
572	220
573	255
574	229
575	231
576	232
577	225
578	199
579	239
580	257
581	271
582	313
583	259
584	198
585	223
586	224
587	206
588	206
589	199
590	193
591	201
592	238
593	195
594	220
595	199
596	213
597	204
598	196
599	235
600	236
601	217
602	190
603	222
604	200
605	211
606	188
607	221
608	183
609	223
610	210
611	202
612	203
613	168
614	190
615	154
616	214
617	179
618	198
619	194
620	212
621	174
622	205
623	203
624	193
625	191
626	202
627	195
628	225
629	199
630	189
631	185
632	203
633	182
634	199
635	188
636	210
637	192
638	197
639	209
640	213
641	182
642	190
643	162
644	196
645	161
646	175
647	176
648	174
649	187
650	165
651	186
652	162
653	186
654	198
655	175
656	193
657	188
658	188
659	168
660	172
661	191
662	191
663	177
664	178
665	185
666	198
667	176
668	184
669	169
670	183
671	172
672	171
673	161
674	182
675	214
676	187
677	184
678	164
679	185
680	180
681	163
682	179
683	211
684	260
685	299
686	292
687	249
688	235
689	202
690	174
691	190
692	202
693	209
694	237
695	218
696	197
697	181
698	170
699	174
700	153
701	160
702	147
703	178
704	184
705	188
706	156
707	162
708	153
709	148
710	168
711	164
712	169
713	160
714	158
715	149
716	161
717	146
718	144
719	170
720	153
721	161
722	187
723	162
724	158
725	149
726	156
727	153
728	144
729	160
730	154
731	179
732	132
733	147
734	160
735	148
736	140
737	146
738	165
739	155
740	162
741	154
742	146
743	140
744	147
745	166
746	157
747	130
748	126
749	136
750	143
751	158
752	145
753	136
754	144
755	146
756	157
757	164
758	138
759	167
760	127
761	150
762	155
763	132
764	146
765	168
766	164
767	147
768	162
769	143
770	154
771	144
772	169
773	141
774	152
775	131
776	178
777	144
778	132
779	159
780	137
781	145
782	146
783	151
784	148
785	117
786	157
787	174
788	171
789	141
790	162
791	145
792	126
793	115
794	135
795	134
796	148
797	123
798	139
799	119
800	121
801	128
802	137
803	148
804	117
805	131
806	132
807	142
808	131
809	136
810	141
811	117
812	106
813	117
814	115
815	135
816	144
817	139
818	131
819	141
820	140
821	113
822	130
823	140
824	130
825	130
826	119
827	122
828	131
829	157
830	202
831	236
832	254
833	223
834	223
835	156
836	138
837	139
838	128
839	133
840	122
841	155
842	122
843	124
844	131
845	129
846	133
847	133
848	129
849	128
850	127
851	126
852	124
853	112
854	129
855	145
856	126
857	113
858	124
859	136
860	128
861	121
862	124
863	125
864	127
865	107
866	134
867	109
868	116
869	114
870	115
871	99
872	138
873	108
874	117
875	105
876	137
877	117
878	117
879	120
880	131
881	112
882	125
883	120
884	104
885	114
886	140
887	109
888	111
889	114
890	116
891	115
892	114
893	99
894	90
895	133
896	120
897	124
898	118
899	122
900	120
901	103
902	106
903	112
904	96
905	123
906	113
907	91
908	126
909	124
910	92
911	117
912	114
913	100
914	108
915	133
916	115
917	118
918	130
919	101
920	113
921	104
922	112
923	110
924	110
925	96
926	108
927	105
928	119
929	113
930	110
931	100
932	93
933	106
934	90
935	105
936	124
937	107
938	99
939	96
940	113
941	127
942	128
943	132
944	140
945	124
946	100
947	111
948	120
949	97
950	99
951	110
952	92
953	100
954	120
955	90
956	126
957	142
958	95
959	122
960	96
961	94
962	111
963	111
964	102
965	103
966	113
967	97
968	101
969	112
970	101
971	107
972	101
973	106
974	100
975	127
976	164
977	237
978	273
979	285
980	288
981	222
982	160
983	103
984	107
985	113
986	85
987	96
988	109
989	91
990	97
991	107
992	92
993	96
994	95
995	95
996	104
997	106
998	111
999	87
1000	109
1001	101
1002	84
1003	95
1004	104
1005	91
1006	99
1007	84
1008	85
1009	90
1010	89
1011	91
1012	83
1013	85
1014	92
1015	101
1016	88
1017	81
1018	81
1019	83
1020	92
1021	123
1022	81
1023	73
1024	82
1025	87
1026	99
1027	85
1028	84
1029	100
1030	92
1031	83
1032	98
1033	96
1034	82
1035	101
1036	87
1037	93
1038	99
1039	86
1040	92
1041	88
1042	90
1043	76
1044	88
1045	80
1046	101
1047	82
1048	99
1049	84
1050	101
1051	96
1052	87
1053	78
1054	92
1055	77
1056	85
1057	88
1058	93
1059	84
1060	74
1061	99
1062	83
1063	84
1064	90
1065	89
1066	98
1067	86
1068	85
1069	87
1070	78
1071	82
1072	80
1073	87
1074	99
1075	80
1076	89
1077	97
1078	97
1079	91
1080	73
1081	78
1082	81
1083	85
1084	83
1085	95
1086	77
1087	83
1088	84
1089	79
1090	94
1091	81
1092	75
1093	80
1094	80
1095	75
1096	82
1097	90
1098	69
1099	76
1100	88
1101	78
1102	91
1103	88
1104	78
1105	82
1106	79
1107	86
1108	86
1109	84
1110	88
1111	101
1112	73
1113	80
1114	83
1115	96
1116	82
1117	80
1118	73
1119	93
1120	84
1121	88
1122	91
1123	80
1124	66
1125	81
1126	84
1127	73
1128	88
1129	72
1130	81
1131	88
1132	81
1133	81
1134	69
1135	81
1136	82
1137	61
1138	86
1139	73
1140	74
1141	83
1142	77
1143	88
1144	74
1145	62
1146	77
1147	83
1148	81
1149	76
1150	72
1151	69
1152	82
1153	73
1154	71
1155	76
1156	74
1157	68
1158	69
1159	71
1160	88
1161	71
1162	75
1163	93
1164	80
1165	71
1166	80
1167	80
1168	83
1169	71
1170	79
1171	57
1172	76
1173	84
1174	81
1175	89
1176	81
1177	70
1178	73
1179	60
1180	68
1181	64
1182	80
1183	93
1184	70
1185	79
1186	63
1187	83
1188	69
1189	60
1190	72
1191	84
1192	77
1193	78
1194	72
1195	54
1196	77
1197	71
1198	64
1199	63
1200	69
1201	68
1202	73
1203	71
1204	81
1205	65
1206	71
1207	63
1208	74
1209	62
1210	60
1211	76
1212	71
1213	87
1214	56
1215	81
1216	62
1217	83
1218	70
1219	77
1220	57
1221	62
1222	64
1223	65
1224	77
1225	67
1226	64
1227	59
1228	59
1229	77
1230	64
1231	67
1232	71
1233	66
1234	74
1235	78
1236	61
1237	62
1238	73
1239	65
1240	63
1241	78
1242	71
1243	65
1244	63
1245	79
1246	71
1247	63
1248	54
1249	62
1250	64
1251	66
1252	67
1253	58
1254	66
1255	72
1256	67
1257	69
1258	63
1259	60
1260	54
1261	70
1262	76
1263	62
1264	71
1265	74
1266	72
1267	69
1268	62
1269	54
1270	61
1271	48
1272	72
1273	63
1274	38
1275	62
1276	72
1277	62
1278	66
1279	70
1280	67
1281	49
1282	57
1283	63
1284	73
1285	68
1286	56
1287	68
1288	68
1289	73
1290	63
1291	75
1292	67
1293	56
1294	58
1295	61
1296	62
1297	71
1298	66
1299	74
1300	52
1301	68
1302	61
1303	60
1304	64
1305	58
1306	68
1307	66
1308	61
1309	68
1310	72
1311	64
1312	62
1313	62
1314	48
1315	53
1316	51
1317	56
1318	56
1319	75
1320	62
1321	62
1322	60
1323	53
1324	66
1325	58
1326	57
1327	68
1328	76
1329	86
1330	68
1331	52
1332	48
1333	61
1334	64
1335	74
1336	72
1337	50
1338	50
1339	66
1340	62
1341	51
1342	53
1343	49
1344	68
1345	57
1346	55
1347	60
1348	60
1349	68
1350	63
1351	44
1352	55
1353	58
1354	53
1355	70
1356	61
1357	58
1358	79
1359	48
1360	67
1361	75
1362	69
1363	79
1364	67
1365	61
1366	52
1367	56
1368	61
1369	63
1370	47
1371	58
1372	62
1373	57
1374	54
1375	52
1376	68
1377	56
1378	69
1379	64
1380	68
1381	72
1382	60
1383	86
1384	88
1385	133
1386	172
1387	201
1388	241
1389	293
1390	370
1391	325
1392	340
1393	292
1394	279
1395	197
1396	114
1397	92
1398	86
1399	73
1400	82
1401	50
1402	71
1403	64
1404	68
1405	69
1406	66
1407	56
1408	64
1409	62
1410	57
1411	49
1412	57
1413	51
1414	63
1415	62
1416	39
1417	62
1418	71
1419	52
1420	56
1421	46
1422	53
1423	50
1424	53
1425	56
1426	79
1427	51
1428	46
1429	49
1430	59
1431	42
1432	52
1433	40
1434	53
1435	41
1436	62
1437	49
1438	60
1439	53
1440	51
1441	45
1442	65
1443	50
1444	59
1445	58
1446	50
1447	45
1448	47
1449	72
1450	56
1451	65
1452	47
1453	56
1454	36
1455	46
1456	48
1457	48
1458	62
1459	60
1460	54
1461	61
1462	38
1463	47
1464	58
1465	49
1466	68
1467	55
1468	50
1469	43
1470	50
1471	52
1472	41
1473	41
1474	54
1475	61
1476	54
1477	47
1478	63
1479	45
1480	62
1481	74
1482	47
1483	49
1484	52
1485	44
1486	66
1487	47
1488	41
1489	58
1490	52
1491	70
1492	55
1493	56
1494	53
1495	53
1496	49
1497	63
1498	51
1499	53
1500	46
1501	51
1502	26
1503	58
1504	48
1505	41
1506	70
1507	47
1508	45
1509	57
1510	52
1511	54
1512	49
1513	53
1514	65
1515	52
1516	54
1517	53
1518	63
1519	52
1520	48
1521	51
1522	45
1523	46
1524	42
1525	50
1526	62
1527	61
1528	69
1529	49
1530	64
1531	64
1532	44
1533	53
1534	47
1535	43
1536	36
1537	48
1538	58
1539	52
1540	55
1541	76
1542	67
1543	52
1544	62
1545	70
1546	53
1547	43
1548	59
1549	50
1550	59
1551	45
1552	41
1553	53
1554	51
1555	52
1556	51
1557	51
1558	57
1559	42
1560	50
1561	41
1562	49
1563	37
1564	53
1565	37
1566	44
1567	49
1568	38
1569	61
1570	57
1571	50
1572	41
1573	51
1574	61
1575	95
1576	70
1577	97
1578	114
1579	105
1580	85
1581	65
1582	50
1583	51
1584	50
1585	55
1586	64
1587	53
1588	63
1589	57
1590	55
1591	43
1592	47
1593	36
1594	39
1595	50
1596	45
1597	44
1598	54
1599	62
1600	48
1601	60
1602	40
1603	42
1604	35
1605	57
1606	42
1607	52
1608	54
1609	48
1610	76
1611	61
1612	68
1613	62
1614	55
1615	61
1616	71
1617	69
1618	59
1619	74
1620	55
1621	56
1622	54
1623	61
1624	56
1625	64
1626	60
1627	64
1628	64
1629	56
1630	64
1631	50
1632	51
1633	55
1634	65
1635	61
1636	43
1637	65
1638	52
1639	54
1640	56
1641	61
1642	119
1643	115
1644	206
1645	225
1646	198
1647	193
1648	133
1649	97
1650	58
1651	56
1652	57
1653	54
1654	54
1655	59
1656	56
1657	40
1658	60
1659	68
1660	46
1661	44
1662	49
1663	58
1664	63
1665	40
1666	38
1667	48
1668	51
1669	42
1670	50
1671	53
1672	42
1673	53
1674	47
1675	49
1676	47
1677	49
1678	47
1679	40
1680	38
1681	50
1682	41
1683	42
1684	38
1685	42
1686	40
1687	58
1688	49
1689	50
1690	50
1691	49
1692	52
1693	40
1694	47
1695	49
1696	49
1697	50
1698	42
1699	41
1700	37
1701	52
1702	41
1703	35
1704	43
1705	39
1706	46
1707	47
1708	49
1709	48
1710	51
1711	52
1712	42
1713	45
1714	43
1715	42
1716	42
1717	40
1718	40
1719	44
1720	34
1721	33
1722	38
1723	38
1724	46
1725	55
1726	44
1727	60
1728	38
1729	51
1730	38
1731	36
1732	42
1733	31
1734	20
1735	38
1736	35
1737	42
1738	38
1739	44
1740	43
1741	41
1742	46
1743	41
1744	31
1745	43
1746	36
1747	43
1748	38
1749	36
1750	39
1751	36
1752	47
1753	48
1754	45
1755	50
1756	40
1757	44
1758	48
1759	37
1760	50
1761	48
1762	36
1763	43
1764	55
1765	38
1766	39
1767	54
1768	35
1769	33
1770	41
1771	42
1772	34
1773	41
1774	45
1775	34
1776	40
1777	39
1778	46
1779	38
1780	35
1781	43
1782	40
1783	31
1784	40
1785	42
1786	38
1787	47
1788	33
1789	52
1790	40
1791	44
1792	37
1793	39
1794	34
1795	42
1796	45
1797	36
1798	40
1799	32
1800	43
1801	24
1802	44
1803	46
1804	45
1805	39
1806	37
1807	42
1808	37
1809	23
1810	43
1811	33
1812	36
1813	39
1814	45
1815	38
1816	42
1817	43
1818	38
1819	38
1820	27
1821	36
1822	36
1823	38
1824	38
1825	33
1826	42
1827	41
1828	38
1829	34
1830	35
1831	41
1832	35
1833	34
1834	32
1835	39
1836	39
1837	41
1838	34
1839	43
1840	33
1841	32
1842	38
1843	55
1844	50
1845	38
1846	31
1847	44
1848	32
1849	36
1850	35
1851	48
1852	40
1853	38
1854	42
1855	33
1856	46
1857	35
1858	42
1859	43
1860	44
1861	42
1862	44
1863	43
1864	58
1865	48
1866	54
1867	44
1868	49
1869	50
1870	59
1871	53
1872	40
1873	42
1874	52
1875	58
1876	44
1877	39
1878	60
1879	45
1880	38
1881	43
1882	41
1883	57
1884	53
1885	41
1886	55
1887	45
1888	47
1889	52
1890	50
1891	43
1892	41
1893	48
1894	43
1895	31
1896	40
1897	33
1898	40
1899	48
1900	41
1901	53
1902	37
1903	40
1904	42
1905	41
1906	36
1907	51
1908	43
1909	50
1910	45
1911	32
1912	44
1913	43
1914	50
1915	41
1916	52
1917	44
1918	49
1919	47
1920	29
1921	35
1922	20
1923	26
1924	44
1925	39
1926	30
1927	31
1928	31
1929	32
1930	41
1931	41
1932	37
1933	47
1934	41
1935	37
1936	34
1937	42
1938	32
1939	36
1940	45
1941	23
1942	23
1943	27
1944	38
1945	38
1946	33
1947	29
1948	34
1949	53
1950	38
1951	40
1952	54
1953	51
1954	45
1955	37
1956	29
1957	29
1958	29
1959	39
1960	36
1961	22
1962	29
1963	28
1964	36
1965	35
1966	30
1967	39
1968	28
1969	38
1970	38
1971	40
1972	31
1973	39
1974	33
1975	30
1976	36
1977	44
1978	21
1979	33
1980	37
1981	32
1982	27
1983	29
1984	37
1985	25
1986	38
1987	24
1988	37
1989	32
1990	35
1991	26
1992	36
1993	43
1994	39
1995	27
1996	33
1997	30
1998	31
1999	35
2000	33
2001	25
2002	36
2003	32
2004	26
2005	34
2006	39
2007	25
2008	31
2009	28
2010	39
2011	39
2012	36
2013	39
2014	32
2015	31
2016	22
2017	29
2018	27
2019	29
2020	24
2021	22
2022	31
2023	35
2024	25
2025	25
2026	36
2027	28
2028	41
2029	39
2030	33
2031	30
2032	35
2033	42
2034	29
2035	33
2036	32
2037	27
2038	33
2039	29
2040	29
2041	33
2042	36
2043	36
2044	38
2045	35
2046	35
2047	30
2048	33
2049	27
2050	47
2051	34
2052	29
2053	50
2054	36
2055	39
2056	39
2057	53
2058	41
2059	37
2060	38
2061	33
2062	37
2063	27
2064	35
2065	36
2066	27
2067	35
2068	40
2069	41
2070	26
2071	32
2072	30
2073	29
2074	39
2075	27
2076	30
2077	44
2078	27
2079	43
2080	36
2081	25
2082	27
2083	22
2084	25
2085	31
2086	26
2087	30
2088	28
2089	31
2090	28
2091	45
2092	31
2093	33
2094	40
2095	29
2096	22
2097	38
2098	27
2099	33
2100	39
2101	36
2102	45
2103	35
2104	40
2105	28
2106	35
2107	29
2108	23
2109	19
2110	29
2111	28
2112	31
2113	24
2114	23
2115	24
2116	29
2117	21
2118	33
2119	31
2120	24
2121	31
2122	32
2123	29
2124	37
2125	36
2126	25
2127	40
2128	30
2129	31
2130	46
2131	25
2132	29
2133	26
2134	19
2135	28
2136	28
2137	29
2138	25
2139	28
2140	28
2141	24
2142	31
2143	35
2144	31
2145	45
2146	44
2147	44
2148	40
2149	39
2150	31
2151	34
2152	28
2153	32
2154	32
2155	32
2156	36
2157	38
2158	34
2159	27
2160	27
2161	27
2162	19
2163	34
2164	25
2165	37
2166	20
2167	19
2168	26
2169	29
2170	28
2171	22
2172	19
2173	31
2174	29
2175	22
2176	27
2177	25
2178	34
2179	35
2180	31
2181	23
2182	35
2183	18
2184	24
2185	28
2186	26
2187	32
2188	30
2189	24
2190	22
2191	23
2192	23
2193	31
2194	30
2195	22
2196	29
2197	25
2198	25
2199	17
2200	36
2201	22
2202	34
2203	21
2204	35
2205	35
2206	26
2207	27
2208	29
2209	25
2210	20
2211	40
2212	23
2213	34
2214	25
2215	19
2216	20
2217	21
2218	25
2219	29
2220	30
2221	31
2222	33
2223	30
2224	34
2225	32
2226	25
2227	35
2228	38
2229	26
2230	39
2231	25
2232	34
2233	32
2234	42
2235	31
2236	44
2237	28
2238	33
2239	21
2240	28
2241	28
2242	49
2243	27
2244	37
2245	31
2246	29
2247	31
2248	35
2249	38
2250	33
2251	30
2252	27
2253	20
2254	31
2255	37
2256	38
2257	23
2258	36
2259	33
2260	21
2261	21
2262	31
2263	37
2264	30
2265	31
2266	24
2267	24
2268	31
2269	25
2270	32
2271	45
2272	32
2273	32
2274	26
2275	32
2276	27
2277	36
2278	29
2279	21
2280	32
2281	29
2282	27
2283	15
2284	18
2285	32
2286	27
2287	38
2288	28
2289	29
2290	29
2291	30
2292	27
2293	23
2294	47
2295	42
2296	49
2297	32
2298	44
2299	39
2300	32
2301	32
2302	33
2303	33
2304	40
2305	23
2306	18
2307	27
2308	31
2309	25
2310	30
2311	31
2312	28
2313	34
2314	28
2315	30
2316	30
2317	40
2318	39
2319	30
2320	32
2321	25
2322	22
2323	26
2324	34
2325	22
2326	32
2327	20
2328	18
2329	27
2330	41
2331	26
2332	22
2333	25
2334	30
2335	27
2336	29
2337	17
2338	26
2339	31
2340	23
2341	16
2342	28
2343	23
2344	33
2345	27
2346	33
2347	26
2348	34
2349	22
2350	24
2351	35
2352	25
2353	29
2354	19
2355	27
2356	22
2357	24
2358	33
2359	25
2360	28
2361	30
2362	24
2363	24
2364	23
2365	30
2366	17
2367	18
2368	35
2369	29
2370	29
2371	22
2372	24
2373	35
2374	24
2375	32
2376	23
2377	25
2378	15
2379	25
2380	28
2381	22
2382	28
2383	30
2384	27
2385	23
2386	25
2387	21
2388	30
2389	18
2390	28
2391	23
2392	33
2393	33
2394	29
2395	29
2396	34
2397	29
2398	33
2399	18
2400	35
2401	18
2402	24
2403	25
2404	19
2405	34
2406	26
2407	28
2408	27
2409	20
2410	31
2411	26
2412	25
2413	19
2414	24
2415	23
2416	21
2417	19
2418	21
2419	29
2420	28
2421	30
2422	30
2423	24
2424	29
2425	41
2426	58
2427	65
2428	82
2429	55
2430	51
2431	39
2432	30
2433	33
2434	21
2435	27
2436	25
2437	28
2438	18
2439	36
2440	23
2441	25
2442	28
2443	24
2444	21
2445	22
2446	19
2447	18
2448	24
2449	27
2450	21
2451	25
2452	29
2453	25
2454	42
2455	23
2456	26
2457	17
2458	23
2459	32
2460	25
2461	21
2462	27
2463	34
2464	33
2465	16
2466	29
2467	26
2468	19
2469	21
2470	16
2471	27
2472	28
2473	17
2474	28
2475	25
2476	13
2477	17
2478	22
2479	18
2480	30
2481	22
2482	28
2483	24
2484	21
2485	30
2486	42
2487	27
2488	24
2489	32
2490	29
2491	26
2492	20
2493	19
2494	35
2495	24
2496	20
2497	28
2498	30
2499	28
2500	15
2501	18
2502	21
2503	18
2504	22
2505	14
2506	20
2507	28
2508	22
2509	19
2510	25
2511	18
2512	25
2513	26
2514	20
2515	21
2516	15
2517	27
2518	25
2519	23
2520	25
2521	20
2522	18
2523	28
2524	29
2525	25
2526	31
2527	21
2528	20
2529	26
2530	27
2531	19
2532	26
2533	17
2534	26
2535	16
2536	27
2537	22
2538	23
2539	20
2540	19
2541	28
2542	26
2543	17
2544	20
2545	28
2546	15
2547	22
2548	24
2549	23
2550	18
2551	27
2552	15
2553	23
2554	27
2555	29
2556	26
2557	21
2558	33
2559	29
2560	20
2561	29
2562	29
2563	28
2564	25
2565	31
2566	36
2567	29
2568	21
2569	26
2570	26
2571	16
2572	22
2573	33
2574	32
2575	38
2576	49
2577	39
2578	53
2579	46
2580	41
2581	33
2582	16
2583	27
2584	25
2585	27
2586	24
2587	20
2588	27
2589	21
2590	26
2591	17
2592	21
2593	18
2594	20
2595	22
2596	22
2597	20
2598	17
2599	20
2600	17
2601	17
2602	22
2603	22
2604	33
2605	28
2606	21
2607	21
2608	17
2609	21
2610	22
2611	30
2612	30
2613	18
2614	21
2615	34
2616	20
2617	28
2618	11
2619	28
2620	21
2621	28
2622	18
2623	20
2624	15
2625	27
2626	27
2627	12
2628	17
2629	24
2630	14
2631	29
2632	22
2633	17
2634	25
2635	22
2636	24
2637	16
2638	26
2639	11
2640	18
2641	18
2642	15
2643	18
2644	18
2645	28
2646	20
2647	25
2648	25
2649	16
2650	17
2651	23
2652	25
2653	20
2654	16
2655	22
2656	16
2657	21
2658	28
2659	34
2660	48
2661	34
2662	36
2663	30
2664	22
2665	12
2666	24
2667	27
2668	16
2669	19
2670	16
2671	17
2672	22
2673	20
2674	19
2675	27
2676	22
2677	30
2678	15
2679	23
2680	19
2681	23
2682	18
2683	23
2684	20
2685	16
2686	11
2687	16
2688	19
2689	23
2690	21
2691	22
2692	21
2693	19
2694	22
2695	27
2696	24
2697	24
2698	19
2699	21
2700	29
2701	22
2702	13
2703	16
2704	19
2705	23
2706	16
2707	25
2708	19
2709	19
2710	18
2711	20
2712	21
2713	18
2714	21
2715	28
2716	20
2717	23
2718	21
2719	20
2720	29
2721	20
2722	20
2723	17
2724	16
2725	19
2726	29
2727	20
2728	15
2729	26
2730	20
2731	18
2732	13
2733	19
2734	23
2735	14
2736	19
2737	20
2738	19
2739	22
2740	23
2741	23
2742	18
2743	25
2744	8
2745	19
2746	24
2747	21
2748	18
2749	23
2750	22
2751	18
2752	19
2753	19
2754	15
2755	19
2756	27
2757	18
2758	13
2759	19
2760	22
2761	26
2762	20
2763	21
2764	22
2765	27
2766	29
2767	23
2768	26
2769	18
2770	26
2771	22
2772	21
2773	18
2774	18
2775	20
2776	17
2777	24
2778	27
2779	25
2780	20
2781	21
2782	21
2783	22
2784	27
2785	18
2786	24
2787	21
2788	19
2789	12
2790	22
2791	22
2792	11
2793	12
2794	20
2795	19
2796	23
2797	22
2798	23
2799	27
2800	19
2801	22
2802	14
2803	22
2804	17
2805	22
2806	15
2807	13
2808	20
2809	25
2810	31
2811	22
2812	21
2813	17
2814	19
2815	17
2816	24
2817	17
2818	13
2819	27
2820	23
2821	23
2822	18
2823	20
2824	21
2825	20
2826	21
2827	23
2828	25
2829	15
2830	12
2831	24
2832	29
2833	18
2834	20
2835	17
2836	19
2837	16
2838	23
2839	23
2840	27
2841	19
2842	22
2843	24
2844	31
2845	15
2846	20
2847	26
2848	23
2849	15
2850	16
2851	22
2852	23
2853	16
2854	17
2855	18
2856	18
2857	18
2858	14
2859	24
2860	18
2861	14
2862	23
2863	26
2864	24
2865	23
2866	13
2867	17
2868	15
2869	16
2870	16
2871	12
2872	23
2873	29
2874	20
2875	13
2876	11
2877	29
2878	23
2879	11
2880	15
2881	18
2882	13
2883	13
2884	12
2885	23
2886	18
2887	15
2888	16
2889	23
2890	14
2891	22
2892	22
2893	18
2894	15
2895	21
2896	10
2897	14
2898	20
2899	14
2900	23
2901	24
2902	13
2903	23
2904	24
2905	20
2906	19
2907	18
2908	20
2909	18
2910	19
2911	12
2912	27
2913	15
2914	18
2915	20
2916	19
2917	19
2918	13
2919	16
2920	20
2921	18
2922	20
2923	20
2924	22
2925	8
2926	18
2927	24
2928	15
2929	20
2930	25
2931	19
2932	24
2933	18
2934	10
2935	16
2936	17
2937	16
2938	9
2939	22
2940	17
2941	12
2942	18
2943	13
2944	18
2945	18
2946	20
2947	19
2948	24
2949	12
2950	17
2951	25
2952	18
2953	16
2954	15
2955	19
2956	20
2957	27
2958	24
2959	15
2960	18
2961	13
2962	20
2963	14
2964	23
2965	32
2966	25
2967	39
2968	51
2969	63
2970	60
2971	64
2972	40
2973	40
2974	16
2975	18
2976	14
2977	23
2978	17
2979	19
2980	22
2981	23
2982	21
2983	17
2984	20
2985	15
2986	20
2987	20
2988	19
2989	18
2990	18
2991	18
2992	20
2993	21
2994	16
2995	16
2996	21
2997	13
2998	16
2999	20
3000	27
3001	18
3002	19
3003	28
3004	20
3005	20
3006	23
3007	18
3008	16
3009	13
3010	18
3011	17
3012	16
3013	19
3014	17
3015	24
3016	16
3017	22
3018	19
3019	15
3020	15
3021	23
3022	23
3023	18
3024	19
3025	19
3026	13
3027	21
3028	19
3029	23
3030	16
3031	14
3032	21
3033	17
3034	8
3035	19
3036	9
3037	11
3038	16
3039	19
3040	17
3041	11
3042	17
3043	21
3044	14
3045	14
3046	19
3047	14
3048	15
3049	14
3050	23
3051	15
3052	15
3053	12
3054	19
3055	13
3056	22
3057	27
3058	18
3059	21
3060	18
3061	26
3062	22
3063	16
3064	15
3065	15
3066	13
3067	18
3068	14
3069	19
3070	12
3071	16
3072	15
3073	7
3074	9
3075	20
3076	20
3077	17
3078	11
3079	10
3080	17
3081	19
3082	25
3083	20
3084	20
3085	12
3086	15
3087	19
3088	13
3089	18
3090	15
3091	13
3092	26
3093	17
3094	17
3095	12
3096	7
3097	14
3098	10
3099	19
3100	21
3101	20
3102	18
3103	14
3104	22
3105	19
3106	18
3107	12
3108	21
3109	22
3110	13
3111	17
3112	17
3113	19
3114	14
3115	16
3116	15
3117	16
3118	21
3119	14
3120	18
3121	19
3122	17
3123	16
3124	7
3125	16
3126	17
3127	17
3128	12
3129	20
3130	15
3131	15
3132	17
3133	18
3134	17
3135	19
3136	27
3137	17
3138	12
3139	13
3140	25
3141	17
3142	17
3143	15
3144	9
3145	14
3146	14
3147	10
3148	20
3149	12
3150	14
3151	18
3152	18
3153	19
3154	17
3155	17
3156	15
3157	21
3158	18
3159	23
3160	11
3161	21
3162	19
3163	20
3164	19
3165	12
3166	15
3167	18
3168	17
3169	15
3170	18
3171	16
3172	14
3173	17
3174	11
3175	19
3176	22
3177	21
3178	16
3179	18
3180	18
3181	13
3182	14
3183	16
3184	18
3185	16
3186	22
3187	13
3188	18
3189	19
3190	19
3191	12
3192	16
3193	11
3194	16
3195	19
3196	17
3197	18
3198	12
3199	17
3200	19
3201	17
3202	18
3203	9
3204	18
3205	18
3206	23
3207	29
3208	20
3209	21
3210	21
3211	17
3212	10
3213	19
3214	25
3215	17
3216	12
3217	19
3218	16
3219	11
3220	15
3221	17
3222	13
3223	14
3224	22
3225	19
3226	18
3227	17
3228	13
3229	12
3230	24
3231	22
3232	13
3233	11
3234	22
3235	14
3236	13
3237	19
3238	16
3239	15
3240	24
3241	10
3242	17
3243	19
3244	21
3245	17
3246	14
3247	17
3248	16
3249	16
3250	18
3251	19
3252	11
3253	19
3254	16
3255	15
3256	18
3257	17
3258	12
3259	15
3260	21
3261	20
3262	18
3263	17
3264	12
3265	12
3266	26
3267	21
3268	15
3269	17
3270	19
3271	27
3272	20
3273	32
3274	31
3275	45
3276	40
3277	29
3278	26
3279	12
3280	15
3281	24
3282	9
3283	18
3284	21
3285	17
3286	22
3287	17
3288	13
3289	13
3290	17
3291	18
3292	16
3293	16
3294	15
3295	19
3296	10
3297	18
3298	18
3299	13
3300	19
3301	18
3302	15
3303	15
3304	21
3305	14
3306	18
3307	11
3308	10
3309	18
3310	18
3311	14
3312	14
3313	17
3314	11
3315	14
3316	24
3317	8
3318	15
3319	18
3320	16
3321	13
3322	14
3323	23
3324	12
3325	10
3326	18
3327	14
3328	11
3329	16
3330	12
3331	13
3332	14
3333	15
3334	16
3335	12
3336	17
3337	25
3338	15
3339	22
3340	16
3341	7
3342	21
3343	7
3344	9
3345	11
3346	16
3347	19
3348	9
3349	14
3350	10
3351	15
3352	9
3353	17
3354	14
3355	13
3356	18
3357	9
3358	15
3359	14
3360	12
3361	13
3362	11
3363	12
3364	11
3365	13
3366	21
3367	23
3368	23
3369	31
3370	32
3371	23
3372	18
3373	25
3374	9
3375	18
3376	12
3377	14
3378	11
3379	18
3380	14
3381	14
3382	16
3383	22
3384	17
3385	17
3386	14
3387	26
3388	8
3389	14
3390	16
3391	14
3392	16
3393	16
3394	12
3395	12
3396	16
3397	17
3398	10
3399	19
3400	10
3401	8
3402	14
3403	18
3404	7
3405	14
3406	15
3407	14
3408	21
3409	12
3410	8
3411	17
3412	6
3413	7
3414	16
3415	19
3416	13
3417	11
3418	14
3419	13
3420	21
3421	12
3422	19
3423	15
3424	14
3425	14
3426	13
3427	5
3428	20
3429	11
3430	19
3431	7
3432	14
3433	14
3434	15
3435	18
3436	14
3437	15
3438	12
3439	12
3440	8
3441	11
3442	11
3443	13
3444	14
3445	11
3446	10
3447	12
3448	10
3449	19
3450	23
3451	6
3452	5
3453	16
3454	7
3455	16
3456	9
3457	6
3458	11
3459	11
3460	12
3461	17
3462	4
3463	12
3464	11
3465	12
3466	16
3467	17
3468	11
3469	6
3470	11
3471	19
3472	14
3473	19
3474	10
3475	14
3476	9
3477	15
3478	14
3479	19
3480	14
3481	11
3482	19
3483	16
3484	11
3485	9
3486	8
3487	18
3488	8
3489	9
3490	15
3491	13
3492	18
3493	16
3494	15
3495	9
3496	12
3497	10
3498	15
3499	18
3500	18
3501	20
3502	9
3503	11
3504	11
3505	12
3506	18
3507	15
3508	16
3509	14
3510	12
3511	18
3512	16
3513	21
3514	12
3515	6
3516	5
3517	8
3518	19
3519	18
3520	12
3521	11
3522	16
3523	14
3524	16
3525	14
3526	15
3527	12
3528	14
3529	11
3530	9
3531	15
3532	10
3533	9
3534	18
3535	11
3536	12
3537	20
3538	10
3539	15
3540	13
3541	17
3542	7
3543	11
3544	12
3545	16
3546	11
3547	10
3548	10
3549	13
3550	13
3551	11
3552	9
3553	6
3554	17
3555	11
3556	17
3557	8
3558	13
3559	10
3560	13
3561	13
3562	14
3563	14
3564	10
3565	11
3566	9
3567	15
3568	12
3569	13
3570	12
3571	16
3572	11
3573	12
3574	15
3575	8
3576	9
3577	15
3578	12
3579	12
3580	10
3581	12
3582	16
3583	6
3584	15
3585	16
3586	10
3587	11
3588	11
3589	9
3590	8
3591	14
3592	6
3593	14
3594	13
3595	16
3596	10
3597	13
3598	10
3599	12
3600	11
3601	10
3602	13
3603	12
3604	8
3605	13
3606	14
3607	13
3608	18
3609	8
3610	13
3611	16
3612	13
3613	12
3614	14
3615	13
3616	17
3617	10
3618	14
3619	17
3620	10
3621	10
3622	9
3623	16
3624	14
3625	10
3626	14
3627	17
3628	12
3629	12
3630	15
3631	20
3632	10
3633	13
3634	22
3635	20
3636	22
3637	15
3638	25
3639	20
3640	20
3641	24
3642	15
3643	8
3644	14
3645	10
3646	15
3647	19
3648	10
3649	16
3650	15
3651	14
3652	9
3653	18
3654	15
3655	13
3656	18
3657	21
3658	16
3659	12
3660	15
3661	18
3662	15
3663	12
3664	7
3665	7
3666	9
3667	13
3668	13
3669	15
3670	10
3671	11
3672	13
3673	14
3674	14
3675	6
3676	11
3677	8
3678	16
3679	11
3680	9
3681	13
3682	10
3683	12
3684	8
3685	10
3686	5
3687	11
3688	7
3689	12
3690	14
3691	18
3692	9
3693	12
3694	5
3695	14
3696	16
3697	18
3698	15
3699	17
3700	14
3701	13
3702	9
3703	12
3704	7
3705	14
3706	11
3707	11
3708	9
3709	10
3710	10
3711	20
3712	13
3713	17
3714	16
3715	15
3716	14
3717	14
3718	22
3719	15
3720	8
3721	15
3722	13
3723	12
3724	13
3725	14
3726	12
3727	15
3728	8
3729	20
3730	15
3731	9
3732	9
3733	9
3734	6
3735	12
3736	19
3737	7
3738	16
3739	11
3740	13
3741	10
3742	14
3743	5
3744	8
3745	14
3746	15
3747	15
3748	15
3749	14
3750	14
3751	16
3752	14
3753	14
3754	13
3755	12
3756	10
3757	10
3758	9
3759	17
3760	7
3761	9
3762	6
3763	12
3764	10
3765	14
3766	6
3767	12
3768	8
3769	20
3770	10
3771	7
3772	8
3773	17
3774	12
3775	17
3776	13
3777	12
3778	8
3779	12
3780	19
3781	9
3782	15
3783	13
3784	10
3785	14
3786	6
3787	7
3788	12
3789	10
3790	11
3791	13
3792	6
3793	12
3794	10
3795	11
3796	10
3797	10
3798	10
3799	7
3800	9
3801	12
3802	14
3803	12
3804	14
3805	12
3806	8
3807	15
3808	14
3809	11
3810	11
3811	11
3812	9
3813	14
3814	14
3815	7
3816	13
3817	8
3818	14
3819	7
3820	4
3821	9
3822	12
3823	5
3824	8
3825	9
3826	16
3827	13
3828	9
3829	8
3830	14
3831	11
3832	9
3833	12
3834	9
3835	8
3836	17
3837	9
3838	9
3839	8
3840	9
3841	10
3842	9
3843	10
3844	3
3845	19
3846	15
3847	20
3848	39
3849	53
3850	88
3851	74
3852	109
3853	86
3854	73
3855	54
3856	25
3857	19
3858	16
3859	17
3860	14
3861	13
3862	13
3863	13
3864	8
3865	5
3866	17
3867	15
3868	6
3869	16
3870	12
3871	11
3872	10
3873	10
3874	13
3875	6
3876	8
3877	8
3878	8
3879	9
3880	8
3881	12
3882	14
3883	11
3884	10
3885	8
3886	13
3887	8
3888	8
3889	8
3890	5
3891	10
3892	11
3893	7
3894	7
3895	9
3896	9
3897	10
3898	14
3899	11
3900	10
3901	14
3902	6
3903	6
3904	15
3905	5
3906	9
3907	13
3908	10
3909	14
3910	14
3911	8
3912	6
3913	4
3914	12
3915	10
3916	7
3917	10
3918	6
3919	9
3920	11
3921	10
3922	12
3923	7
3924	6
3925	10
3926	10
3927	19
3928	12
3929	9
3930	13
3931	11
3932	9
3933	12
3934	17
3935	6
3936	8
3937	15
3938	14
3939	14
3940	15
3941	12
3942	19
3943	12
3944	18
3945	13
3946	15
3947	17
3948	9
3949	8
3950	5
3951	9
3952	4
3953	14
3954	10
3955	10
3956	15
3957	18
3958	16
3959	13
3960	10
3961	7
3962	12
3963	5
3964	16
3965	6
3966	5
3967	11
3968	10
3969	12
3970	6
3971	5
3972	14
3973	14
3974	12
3975	15
3976	12
3977	14
3978	12
3979	13
3980	7
3981	15
3982	10
3983	9
3984	8
3985	6
3986	12
3987	14
3988	10
3989	9
3990	11
3991	10
3992	11
3993	13
3994	8
3995	16
3996	9
3997	6
3998	6
3999	6
4000	8
4001	7
4002	11
4003	10
4004	9
4005	5
4006	8
4007	10
4008	15
4009	5
4010	3
4011	10
4012	8
4013	9
4014	6
4015	12
4016	7
4017	16
4018	8
4019	7
4020	15
4021	11
4022	13
4023	4
4024	6
4025	6
4026	8
4027	14
4028	11
4029	14
4030	9
4031	6
4032	7
4033	8
4034	9
4035	7
4036	10
4037	11
4038	16
4039	7
4040	8
4041	8
4042	8
4043	7
4044	9
4045	10
4046	7
4047	14
4048	7
4049	9
4050	13
4051	3
4052	10
4053	10
4054	12
4055	5
4056	10
4057	9
4058	11
4059	7
4060	7
4061	11
4062	6
4063	12
4064	11
4065	9
4066	5
4067	7
4068	9
4069	7
4070	6
4071	12
4072	15
4073	8
4074	13
4075	6
4076	11
4077	8
4078	10
4079	11
4080	16
4081	13
4082	8
4083	6
4084	8
4085	10
4086	5
4087	10
4088	9
4089	6
4090	9
4091	8
4092	6
4093	8
4094	12
4095	9
4096	13
4097	15
4098	9
4099	7
4100	10
4101	12
4102	4
4103	12
4104	10
4105	10
4106	10
4107	6
4108	11
4109	6
4110	4
4111	3
4112	7
4113	9
4114	7
4115	5
4116	12
4117	7
4118	8
4119	8
4120	10
4121	7
4122	12
4123	13
4124	12
4125	10
4126	6
4127	8
4128	15
4129	10
4130	10
4131	12
4132	10
4133	6
4134	14
4135	7
4136	9
4137	11
4138	8
4139	11
4140	4
4141	10
4142	8
4143	10
4144	11
4145	12
4146	4
4147	13
4148	11
4149	10
4150	10
4151	12
4152	7
4153	6
4154	7
4155	14
4156	9
4157	5
4158	8
4159	18
4160	10
4161	11
4162	11
4163	16
4164	13
4165	13
4166	11
4167	16
4168	12
4169	11
4170	13
4171	13
4172	9
4173	15
4174	11
4175	9
4176	10
4177	18
4178	16
4179	19
4180	13
4181	20
4182	21
4183	18
4184	13
4185	16
4186	10
4187	8
4188	8
4189	12
4190	10
4191	14
4192	16
4193	21
4194	26
4195	11
4196	22
4197	13
4198	10
4199	13
4200	15
4201	13
4202	12
4203	7
4204	6
4205	10
4206	3
4207	16
4208	9
4209	12
4210	13
4211	5
4212	14
4213	8
4214	8
4215	6
4216	7
4217	7
4218	9
4219	5
4220	12
4221	7
4222	9
4223	6
4224	10
4225	10
4226	4
4227	10
4228	7
4229	14
4230	14
4231	8
4232	9
4233	8
4234	12
4235	4
4236	9
4237	10
4238	9
4239	11
4240	17
4241	10
4242	7
4243	5
4244	8
4245	10
4246	8
4247	9
4248	7
4249	6
4250	7
4251	7
4252	12
4253	5
4254	7
4255	4
4256	7
4257	11
4258	16
4259	3
4260	12
4261	7
4262	8
4263	11
4264	10
4265	15
4266	13
4267	15
4268	16
4269	10
4270	10
4271	4
4272	10
4273	12
4274	9
4275	7
4276	8
4277	9
4278	5
4279	11
4280	7
4281	3
4282	8
4283	9
4284	9
4285	9
4286	8
4287	8
4288	14
4289	13
4290	11
4291	6
4292	15
4293	8
4294	8
4295	15
4296	11
4297	9
4298	2
4299	11
4300	13
4301	6
4302	10
4303	4
4304	8
4305	5
4306	9
4307	11
4308	13
4309	4
4310	7
4311	8
4312	10
4313	9
4314	11
4315	5
4316	6
4317	13
4318	9
4319	10
4320	9
4321	11
4322	2
4323	6
4324	3
4325	11
4326	9
4327	11
4328	11
4329	10
4330	4
4331	4
4332	10
4333	9
4334	7
4335	6
4336	13
4337	7
4338	9
4339	11
4340	18
4341	10
4342	9
4343	11
4344	6
4345	5
4346	10
4347	9
4348	8
4349	9
4350	6
4351	4
4352	7
4353	7
4354	7
4355	5
4356	7
4357	5
4358	4
4359	6
4360	8
4361	11
4362	5
4363	9
4364	4
4365	6
4366	5
4367	5
4368	15
4369	9
4370	13
4371	7
4372	11
4373	12
4374	9
4375	10
4376	9
4377	4
4378	12
4379	11
4380	9
4381	5
4382	10
4383	4
4384	8
4385	8
4386	10
4387	11
4388	5
4389	7
4390	8
4391	8
4392	11
4393	10
4394	4
4395	6
4396	7
4397	8
4398	11
4399	7
4400	2
4401	6
4402	7
4403	7
4404	9
4405	7
4406	7
4407	1
4408	9
4409	12
4410	4
4411	6
4412	8
4413	4
4414	7
4415	9
4416	5
4417	10
4418	10
4419	3
4420	4
4421	7
4422	9
4423	5
4424	7
4425	11
4426	8
4427	7
4428	7
4429	14
4430	7
4431	10
4432	11
4433	5
4434	7
4435	4
4436	6
4437	6
4438	7
4439	12
4440	9
4441	7
4442	11
4443	6
4444	9
4445	7
4446	17
4447	4
4448	11
4449	9
4450	14
4451	5
4452	9
4453	5
4454	6
4455	9
4456	9
4457	10
4458	7
4459	7
4460	5
4461	7
4462	8
4463	9
4464	8
4465	4
4466	9
4467	7
4468	6
4469	10
4470	8
4471	5
4472	7
4473	4
4474	8
4475	8
4476	6
4477	9
4478	10
4479	6
4480	6
4481	6
4482	6
4483	8
4484	10
4485	9
4486	8
4487	7
4488	8
4489	7
4490	7
4491	3
4492	9
4493	5
4494	6
4495	7
4496	7
4497	7
4498	9
4499	10
4500	3
4501	12
4502	7
4503	6
4504	8
4505	6
4506	10
4507	6
4508	2
4509	7
4510	7
4511	9
4512	10
4513	13
4514	8
4515	9
4516	9
4517	10
4518	10
4519	3
4520	11
4521	10
4522	6
4523	9
4524	15
4525	10
4526	9
4527	10
4528	8
4529	9
4530	3
4531	9
4532	8
4533	5
4534	12
4535	7
4536	7
4537	2
4538	9
4539	4
4540	9
4541	10
4542	7
4543	12
4544	7
4545	5
4546	11
4547	11
4548	12
4549	11
4550	15
4551	11
4552	10
4553	6
4554	10
4555	6
4556	8
4557	11
4558	8
4559	6
4560	8
4561	4
4562	15
4563	10
4564	12
4565	7
4566	11
4567	4
4568	4
4569	10
4570	5
4571	6
4572	11
4573	3
4574	6
4575	10
4576	5
4577	6
4578	10
4579	5
4580	7
4581	8
4582	4
4583	11
4584	8
4585	10
4586	9
4587	8
4588	9
4589	4
4590	7
4591	5
4592	9
4593	11
4594	13
4595	7
4596	8
4597	4
4598	9
4599	10
4600	8
4601	8
4602	4
4603	2
4604	6
4605	7
4606	6
4607	7
4608	10
4609	7
4610	9
4611	9
4612	7
4613	3
4614	8
4615	9
4616	7
4617	10
4618	9
4619	10
4620	6
4621	9
4622	7
4623	7
4624	6
4625	5
4626	6
4627	7
4628	4
4629	3
4630	13
4631	10
4632	5
4633	17
4634	19
4635	20
4636	29
4637	39
4638	52
4639	56
4640	52
4641	47
4642	35
4643	23
4644	17
4645	14
4646	7
4647	8
4648	8
4649	7
4650	7
4651	9
4652	8
4653	1
4654	4
4655	7
4656	9
4657	7
4658	8
4659	10
4660	7
4661	8
4662	4
4663	8
4664	4
4665	9
4666	12
4667	7
4668	3
4669	8
4670	5
4671	5
4672	5
4673	6
4674	7
4675	10
4676	8
4677	3
4678	12
4679	7
4680	5
4681	3
4682	10
4683	4
4684	6
4685	7
4686	8
4687	10
4688	10
4689	5
4690	7
4691	9
4692	11
4693	9
4694	8
4695	9
4696	8
4697	7
4698	8
4699	5
4700	4
4701	4
4702	10
4703	3
4704	7
4705	7
4706	7
4707	6
4708	6
4709	5
4710	9
4711	6
4712	7
4713	7
4714	7
4715	2
4716	9
4717	6
4718	6
4719	10
4720	8
4721	5
4722	11
4723	6
4724	8
4725	6
4726	11
4727	5
4728	9
4729	14
4730	6
4731	8
4732	9
4733	5
4734	11
4735	5
4736	4
4737	9
4738	6
4739	8
4740	7
4741	5
4742	8
4743	9
4744	5
4745	7
4746	10
4747	5
4748	6
4749	12
4750	10
4751	4
4752	10
4753	6
4754	12
4755	7
4756	7
4757	8
4758	1
4759	5
4760	12
4761	4
4762	5
4763	6
4764	9
4765	6
4766	6
4767	3
4768	9
4769	9
4770	2
4771	7
4772	7
4773	7
4774	5
4775	3
4776	6
4777	11
4778	5
4779	10
4780	11
4781	9
4782	11
4783	6
4784	13
4785	3
4786	6
4787	9
4788	6
4789	8
4790	8
4791	8
4792	6
4793	4
4794	6
4795	5
4796	8
4797	7
4798	9
4799	8
4800	7
4801	2
4802	3
4803	10
4804	6
4805	9
4806	7
4807	5
4808	16
4809	7
4810	10
4811	6
4812	4
4813	0
4814	9
4815	8
4816	3
4817	6
4818	8
4819	5
4820	9
4821	2
4822	8
4823	6
4824	2
4825	6
4826	6
4827	5
4828	6
4829	11
4830	7
4831	11
4832	9
4833	7
4834	7
4835	5
4836	8
4837	6
4838	6
4839	12
4840	5
4841	6
4842	8
4843	5
4844	7
4845	6
4846	4
4847	8
4848	10
4849	4
4850	10
4851	18
4852	13
4853	14
4854	18
4855	15
4856	13
4857	11
4858	8
4859	6
4860	9
4861	7
4862	13
4863	8
4864	6
4865	5
4866	5
4867	9
4868	7
4869	8
4870	11
4871	6
4872	5
4873	4
4874	3
4875	4
4876	8
4877	5
4878	7
4879	3
4880	7
4881	5
4882	9
4883	9
4884	8
4885	13
4886	14
4887	5
4888	6
4889	8
4890	9
4891	9
4892	9
4893	6
4894	8
4895	6
4896	5
4897	6
4898	7
4899	6
4900	7
4901	7
4902	12
4903	11
4904	4
4905	5
4906	9
4907	8
4908	7
4909	5
4910	7
4911	5
4912	3
4913	8
4914	11
4915	3
4916	4
4917	5
4918	5
4919	5
4920	7
4921	5
4922	7
4923	6
4924	4
4925	6
4926	7
4927	10
4928	6
4929	10
4930	13
4931	5
4932	4
4933	9
4934	3
4935	4
4936	1
4937	5
4938	7
4939	9
4940	5
4941	4
4942	5
4943	3
4944	4
4945	6
4946	2
4947	4
4948	6
4949	2
4950	2
4951	4
4952	6
4953	7
4954	8
4955	2
4956	8
4957	6
4958	2
4959	8
4960	7
4961	7
4962	3
4963	4
4964	4
4965	13
4966	4
4967	7
4968	4
4969	4
4970	4
4971	8
4972	4
4973	10
4974	5
4975	6
4976	6
4977	10
4978	9
4979	7
4980	8
4981	4
4982	4
4983	3
4984	3
4985	4
4986	5
4987	9
4988	9
4989	8
4990	4
4991	2
4992	7
4993	6
4994	6
4995	5
4996	4
4997	7
4998	5
4999	5
5000	14
5001	4
5002	11
5003	5
5004	7
5005	7
5006	6
5007	9
5008	5
5009	6
5010	10
5011	7
5012	3
5013	6
5014	3
5015	4
5016	6
5017	6
5018	7
5019	14
5020	7
5021	4
5022	4
5023	8
5024	6
5025	8
5026	7
5027	5
5028	7
5029	3
5030	8
5031	8
5032	5
5033	8
5034	10
5035	5
5036	7
5037	9
5038	2
5039	4
5040	7
5041	6
5042	9
5043	5
5044	5
5045	5
5046	3
5047	9
5048	5
5049	4
5050	8
5051	8
5052	9
5053	6
5054	8
5055	13
5056	5
5057	6
5058	7
5059	8
5060	6
5061	9
5062	4
5063	1
5064	8
5065	4
5066	8
5067	5
5068	0
5069	5
5070	10
5071	10
5072	4
5073	3
5074	10
5075	11
5076	1
5077	6
5078	6
5079	5
5080	6
5081	5
5082	9
5083	6
5084	6
5085	8
5086	4
5087	4
5088	7
5089	6
5090	6
5091	3
5092	9
5093	13
5094	8
5095	10
5096	5
5097	10
5098	11
5099	8
5100	4
5101	5
5102	2
5103	5
5104	3
5105	14
5106	10
5107	2
5108	6
5109	8
5110	5
5111	7
5112	2
5113	8
5114	11
5115	7
5116	3
5117	9
5118	5
5119	6
5120	7
5121	6
5122	4
5123	4
5124	4
5125	8
5126	5
5127	8
5128	7
5129	8
5130	4
5131	9
5132	3
5133	4
5134	7
5135	5
5136	4
5137	4
5138	5
5139	3
5140	6
5141	12
5142	2
5143	9
5144	10
5145	5
5146	10
5147	5
5148	6
5149	9
5150	6
5151	9
5152	4
5153	8
5154	2
5155	5
5156	8
5157	4
5158	7
5159	6
5160	7
5161	4
5162	8
5163	8
5164	10
5165	10
5166	3
5167	6
5168	5
5169	3
5170	2
5171	4
5172	9
5173	7
5174	6
5175	3
5176	3
5177	9
5178	9
5179	5
5180	6
5181	5
5182	7
5183	4
5184	9
5185	5
5186	7
5187	7
5188	6
5189	6
5190	6
5191	3
5192	9
5193	5
5194	8
5195	6
5196	7
5197	8
5198	7
5199	7
5200	10
5201	10
5202	4
5203	5
5204	8
5205	4
5206	5
5207	5
5208	7
5209	8
5210	6
5211	4
5212	9
5213	8
5214	7
5215	6
5216	6
5217	13
5218	8
5219	9
5220	5
5221	8
5222	10
5223	10
5224	6
5225	6
5226	13
5227	7
5228	6
5229	4
5230	7
5231	10
5232	3
5233	3
5234	7
5235	7
5236	6
5237	9
5238	5
5239	7
5240	8
5241	4
5242	3
5243	7
5244	9
5245	4
5246	3
5247	3
5248	3
5249	4
5250	8
5251	5
5252	7
5253	6
5254	7
5255	7
5256	7
5257	4
5258	2
5259	2
5260	3
5261	8
5262	4
5263	5
5264	9
5265	5
5266	6
5267	5
5268	6
5269	7
5270	7
5271	4
5272	6
5273	4
5274	10
5275	3
5276	7
5277	4
5278	12
5279	5
5280	3
5281	8
5282	5
5283	5
5284	7
5285	3
5286	6
5287	7
5288	9
5289	6
5290	11
5291	6
5292	3
5293	6
5294	8
5295	7
5296	4
5297	5
5298	3
5299	4
5300	7
5301	4
5302	5
5303	6
5304	6
5305	6
5306	9
5307	5
5308	8
5309	6
5310	7
5311	5
5312	4
5313	3
5314	5
5315	6
5316	4
5317	5
5318	7
5319	6
5320	3
5321	3
5322	6
5323	6
5324	9
5325	6
5326	4
5327	5
5328	3
5329	6
5330	3
5331	8
5332	3
5333	8
5334	7
5335	6
5336	6
5337	3
5338	5
5339	5
5340	8
5341	3
5342	6
5343	8
5344	8
5345	7
5346	6
5347	9
5348	4
5349	6
5350	8
5351	4
5352	1
5353	9
5354	5
5355	9
5356	5
5357	4
5358	4
5359	7
5360	11
5361	4
5362	7
5363	5
5364	4
5365	4
5366	7
5367	2
5368	6
5369	11
5370	5
5371	9
5372	7
5373	8
5374	1
5375	3
5376	4
5377	7
5378	4
5379	3
5380	10
5381	3
5382	9
5383	3
5384	7
5385	6
5386	6
5387	4
5388	1
5389	8
5390	3
5391	1
5392	10
5393	9
5394	10
5395	5
5396	9
5397	12
5398	4
5399	6
5400	5
5401	3
5402	6
5403	9
5404	4
5405	7
5406	6
5407	6
5408	6
5409	5
5410	4
5411	6
5412	5
5413	7
5414	6
5415	3
5416	3
5417	7
5418	5
5419	4
5420	8
5421	4
5422	5
5423	5
5424	6
5425	5
5426	4
5427	6
5428	5
5429	3
5430	5
5431	4
5432	3
5433	6
5434	7
5435	7
5436	6
5437	5
5438	3
5439	3
5440	2
5441	6
5442	5
5443	0
5444	10
5445	4
5446	7
5447	7
5448	5
5449	3
5450	5
5451	2
5452	5
5453	4
5454	7
5455	5
5456	7
5457	12
5458	4
5459	10
5460	4
5461	3
5462	4
5463	2
5464	7
5465	2
5466	2
5467	7
5468	7
5469	12
5470	7
5471	8
5472	4
5473	7
5474	5
5475	7
5476	5
5477	7
5478	8
5479	1
5480	11
5481	11
5482	8
5483	6
5484	8
5485	10
5486	9
5487	7
5488	7
5489	3
5490	9
5491	7
5492	6
5493	4
5494	4
5495	6
5496	7
5497	10
5498	4
5499	11
5500	5
5501	3
5502	5
5503	5
5504	7
5505	5
5506	9
5507	4
5508	6
5509	10
5510	7
5511	9
5512	8
5513	8
5514	13
5515	11
5516	23
5517	21
5518	12
5519	16
5520	19
5521	15
5522	15
5523	15
5524	9
5525	5
5526	3
5527	6
5528	3
5529	5
5530	5
5531	2
5532	1
5533	7
5534	7
5535	5
5536	2
5537	6
5538	5
5539	3
5540	10
5541	7
5542	10
5543	7
5544	5
5545	6
5546	4
5547	6
5548	12
5549	2
5550	5
5551	4
5552	4
5553	9
5554	11
5555	9
5556	4
5557	4
5558	9
5559	5
5560	11
5561	9
5562	5
5563	5
5564	4
5565	4
5566	7
5567	6
5568	4
5569	7
5570	5
5571	8
5572	8
5573	8
5574	4
5575	6
5576	4
5577	2
5578	9
5579	5
5580	5
5581	4
5582	7
5583	6
5584	6
5585	5
5586	6
5587	3
5588	7
5589	6
5590	4
5591	4
5592	4
5593	7
5594	8
5595	4
5596	6
5597	2
5598	6
5599	4
5600	4
5601	4
5602	4
5603	6
5604	8
5605	2
5606	4
5607	4
5608	7
5609	5
5610	6
5611	4
5612	5
5613	4
5614	7
5615	9
5616	5
5617	5
5618	2
5619	5
5620	8
5621	6
5622	6
5623	8
5624	9
5625	4
5626	5
5627	6
5628	8
5629	8
5630	6
5631	6
5632	4
5633	6
5634	10
5635	3
5636	4
5637	6
5638	4
5639	5
5640	10
5641	7
5642	10
5643	4
5644	6
5645	5
5646	6
5647	7
5648	5
5649	5
5650	8
5651	6
5652	5
5653	7
5654	5
5655	5
5656	7
5657	7
5658	7
5659	6
5660	3
5661	6
5662	6
5663	3
5664	7
5665	4
5666	6
5667	2
5668	5
5669	3
5670	10
5671	5
5672	5
5673	10
5674	6
5675	3
5676	4
5677	6
5678	4
5679	4
5680	3
5681	6
5682	8
5683	4
5684	7
5685	5
5686	6
5687	2
5688	6
5689	5
5690	5
5691	2
5692	5
5693	6
5694	3
5695	9
5696	1
5697	3
5698	7
5699	5
5700	6
5701	3
5702	9
5703	7
5704	5
5705	4
5706	4
5707	5
5708	2
5709	3
5710	6
5711	5
5712	7
5713	3
5714	5
5715	3
5716	7
5717	4
5718	10
5719	2
5720	7
5721	10
5722	6
5723	7
5724	7
5725	8
5726	3
5727	4
5728	6
5729	8
5730	6
5731	9
5732	4
5733	3
5734	5
5735	6
5736	6
5737	4
5738	6
5739	3
5740	2
5741	2
5742	8
5743	5
5744	4
5745	4
5746	2
5747	3
5748	7
5749	3
5750	5
5751	8
5752	2
5753	7
5754	2
5755	6
5756	7
5757	11
5758	5
5759	4
5760	10
5761	6
5762	6
5763	9
5764	3
5765	6
5766	6
5767	5
5768	6
5769	3
5770	3
5771	5
5772	6
5773	5
5774	7
5775	3
5776	11
5777	18
5778	16
5779	19
5780	12
5781	23
5782	10
5783	10
5784	13
5785	7
5786	8
5787	3
5788	6
5789	6
5790	2
5791	5
5792	5
5793	6
5794	6
5795	7
5796	5
5797	2
5798	5
5799	2
5800	4
5801	2
5802	6
5803	5
5804	14
5805	2
5806	12
5807	1
5808	9
5809	8
5810	5
5811	3
5812	8
5813	8
5814	7
5815	3
5816	8
5817	6
5818	8
5819	10
5820	8
5821	5
5822	2
5823	7
5824	9
5825	5
5826	6
5827	11
5828	3
5829	2
5830	5
5831	10
5832	8
5833	8
5834	9
5835	10
5836	11
5837	6
5838	9
5839	3
5840	4
5841	3
5842	5
5843	11
5844	6
5845	10
5846	2
5847	4
5848	2
5849	10
5850	5
5851	4
5852	7
5853	3
5854	4
5855	7
5856	2
5857	2
5858	5
5859	6
5860	5
5861	2
5862	6
5863	4
5864	8
5865	2
5866	2
5867	6
5868	9
5869	1
5870	6
5871	5
5872	10
5873	5
5874	5
5875	4
5876	6
5877	10
5878	10
5879	5
5880	6
5881	6
5882	1
5883	2
5884	3
5885	5
5886	7
5887	3
5888	4
5889	3
5890	3
5891	4
5892	4
5893	6
5894	2
5895	8
5896	3
5897	3
5898	1
5899	6
5900	5
5901	3
5902	7
5903	8
5904	4
5905	7
5906	7
5907	2
5908	2
5909	8
5910	9
5911	5
5912	7
5913	2
5914	7
5915	9
5916	2
5917	3
5918	3
5919	5
5920	3
5921	7
5922	4
5923	5
5924	2
5925	3
5926	9
5927	5
5928	8
5929	6
5930	6
5931	6
5932	5
5933	6
5934	8
5935	1
5936	2
5937	4
5938	3
5939	5
5940	6
5941	2
5942	3
5943	1
5944	9
5945	9
5946	2
5947	7
5948	4
5949	6
5950	3
5951	8
5952	6
5953	5
5954	4
5955	4
5956	7
5957	7
5958	4
5959	5
5960	7
5961	6
5962	4
5963	3
5964	5
5965	1
5966	6
5967	6
5968	5
5969	2
5970	5
5971	6
5972	8
5973	6
5974	5
5975	4
5976	6
5977	6
5978	6
5979	5
5980	4
5981	5
5982	5
5983	1
5984	4
5985	6
5986	5
5987	1
5988	4
5989	10
5990	6
5991	7
5992	4
5993	5
5994	6
5995	4
5996	6
5997	4
5998	9
5999	3
6000	2
6001	2
6002	6
6003	10
6004	5
6005	4
6006	3
6007	2
6008	7
6009	4
6010	5
6011	9
6012	3
6013	4
6014	10
6015	4
6016	5
6017	3
6018	4
6019	9
6020	6
6021	8
6022	5
6023	3
6024	9
6025	7
6026	10
6027	1
6028	3
6029	6
6030	4
6031	2
6032	3
6033	8
6034	7
6035	4
6036	4
6037	6
6038	4
6039	3
6040	7
6041	5
6042	5
6043	6
6044	1
6045	4
6046	7
6047	3
6048	2
6049	6
6050	3
6051	4
6052	4
6053	7
6054	8
6055	5
6056	4
6057	7
6058	4
6059	2
6060	4
6061	7
6062	5
6063	9
6064	4
6065	6
6066	9
6067	6
6068	3
6069	5
6070	9
6071	8
6072	4
6073	4
6074	5
6075	5
6076	3
6077	3
6078	3
6079	5
6080	8
6081	1
6082	8
6083	5
6084	8
6085	4
6086	4
6087	4
6088	6
6089	5
6090	4
6091	3
6092	2
6093	6
6094	7
6095	6
6096	6
6097	4
6098	7
6099	6
6100	6
6101	6
6102	4
6103	4
6104	0
6105	6
6106	6
6107	3
6108	11
6109	5
6110	4
6111	4
6112	6
6113	2
6114	2
6115	3
6116	9
6117	5
6118	2
6119	5
6120	7
6121	11
6122	4
6123	0
6124	6
6125	3
6126	7
6127	6
6128	6
6129	6
6130	4
6131	10
6132	9
6133	7
6134	2
6135	13
6136	6
6137	3
6138	5
6139	8
6140	3
6141	3
6142	5
6143	8
6144	4
6145	9
6146	3
6147	8
6148	8
6149	4
6150	5
6151	2
6152	5
6153	4
6154	5
6155	3
6156	8
6157	7
6158	7
6159	8
6160	4
6161	8
6162	5
6163	5
6164	4
6165	7
6166	3
6167	4
6168	7
6169	5
6170	2
6171	4
6172	4
6173	4
6174	8
6175	5
6176	8
6177	8
6178	4
6179	10
6180	6
6181	6
6182	2
6183	5
6184	6
6185	3
6186	5
6187	5
6188	8
6189	5
6190	7
6191	5
6192	6
6193	4
6194	6
6195	7
6196	1
6197	7
6198	6
6199	5
6200	8
6201	10
6202	3
6203	8
6204	8
6205	3
6206	4
6207	7
6208	4
6209	5
6210	5
6211	6
6212	4
6213	9
6214	4
6215	6
6216	2
6217	8
6218	5
6219	8
6220	6
6221	4
6222	5
6223	4
6224	5
6225	1
6226	4
6227	5
6228	4
6229	2
6230	5
6231	4
6232	8
6233	4
6234	6
6235	10
6236	5
6237	5
6238	6
6239	6
6240	2
6241	4
6242	5
6243	1
6244	2
6245	6
6246	2
6247	0
6248	5
6249	2
6250	3
6251	2
6252	4
6253	4
6254	6
6255	5
6256	4
6257	4
6258	4
6259	4
6260	8
6261	4
6262	5
6263	7
6264	9
6265	4
6266	6
6267	3
6268	6
6269	1
6270	3
6271	8
6272	2
6273	2
6274	3
6275	3
6276	5
6277	9
6278	3
6279	3
6280	7
6281	4
6282	2
6283	5
6284	3
6285	6
6286	4
6287	4
6288	4
6289	3
6290	4
6291	6
6292	5
6293	5
6294	5
6295	2
6296	4
6297	2
6298	5
6299	5
6300	9
6301	2
6302	6
6303	3
6304	6
6305	3
6306	4
6307	1
6308	5
6309	9
6310	7
6311	3
6312	3
6313	6
6314	4
6315	5
6316	4
6317	3
6318	5
6319	4
6320	2
6321	5
6322	9
6323	4
6324	2
6325	3
6326	4
6327	4
6328	2
6329	2
6330	7
6331	5
6332	9
6333	7
6334	4
6335	4
6336	2
6337	7
6338	9
6339	0
6340	5
6341	5
6342	7
6343	3
6344	4
6345	0
6346	6
6347	4
6348	5
6349	4
6350	2
6351	4
6352	6
6353	4
6354	1
6355	1
6356	2
6357	4
6358	9
6359	5
6360	3
6361	3
6362	2
6363	3
6364	4
6365	7
6366	3
6367	5
6368	6
6369	5
6370	3
6371	4
6372	3
6373	3
6374	4
6375	5
6376	4
6377	1
6378	4
6379	8
6380	7
6381	5
6382	9
6383	4
6384	3
6385	8
6386	3
6387	2
6388	3
6389	2
6390	2
6391	9
6392	6
6393	5
6394	4
6395	1
6396	4
6397	5
6398	6
6399	4
6400	1
6401	3
6402	6
6403	10
6404	4
6405	4
6406	3
6407	4
6408	5
6409	7
6410	10
6411	10
6412	7
6413	3
6414	6
6415	5
6416	5
6417	3
6418	7
6419	0
6420	3
6421	4
6422	1
6423	3
6424	5
6425	4
6426	8
6427	4
6428	5
6429	1
6430	3
6431	2
6432	2
6433	3
6434	5
6435	1
6436	2
6437	3
6438	3
6439	4
6440	2
6441	1
6442	2
6443	2
6444	4
6445	4
6446	3
6447	2
6448	4
6449	3
6450	3
6451	3
6452	2
6453	2
6454	1
6455	3
6456	5
6457	4
6458	1
6459	3
6460	6
6461	2
6462	5
6463	1
6464	2
6465	5
6466	7
6467	5
6468	6
6469	3
6470	4
6471	7
6472	0
6473	0
6474	3
6475	2
6476	6
6477	4
6478	5
6479	6
6480	2
6481	4
6482	2
6483	3
6484	2
6485	3
6486	4
6487	3
6488	1
6489	3
6490	0
6491	4
6492	2
6493	3
6494	3
6495	8
6496	2
6497	4
6498	3
6499	3
6500	4
6501	5
6502	6
6503	4
6504	1
6505	6
6506	2
6507	2
6508	3
6509	2
6510	6
6511	1
6512	2
6513	3
6514	1
6515	4
6516	4
6517	3
6518	1
6519	4
6520	0
6521	3
6522	4
6523	1
6524	6
6525	2
6526	6
6527	4
6528	6
6529	2
6530	4
6531	3
6532	4
6533	2
6534	1
6535	1
6536	6
6537	4
6538	5
6539	2
6540	2
6541	5
6542	2
6543	3
6544	6
6545	2
6546	2
6547	7
6548	6
6549	2
6550	4
6551	1
6552	0
6553	2
6554	5
6555	3
6556	2
6557	6
6558	7
6559	2
6560	5
6561	10
6562	6
6563	3
6564	5
6565	2
6566	1
6567	4
6568	5
6569	3
6570	6
6571	2
6572	2
6573	4
6574	2
6575	2
6576	1
6577	5
6578	2
6579	3
6580	6
6581	1
6582	2
6583	5
6584	2
6585	6
6586	2
6587	7
6588	4
6589	3
6590	4
6591	3
6592	5
6593	2
6594	2
6595	3
6596	4
6597	3
6598	1
6599	1
6600	2
6601	4
6602	1
6603	3
6604	3
6605	2
6606	4
6607	1
6608	4
6609	4
6610	4
6611	4
6612	2
6613	4
6614	4
6615	7
6616	6
6617	3
6618	5
6619	1
6620	2
6621	3
6622	5
6623	1
6624	3
6625	1
6626	5
6627	4
6628	6
6629	4
6630	3
6631	2
6632	6
6633	1
6634	0
6635	3
6636	3
6637	4
6638	2
6639	1
6640	3
6641	2
6642	4
6643	5
6644	1
6645	4
6646	5
6647	2
6648	5
6649	1
6650	2
6651	4
6652	1
6653	4
6654	6
6655	2
6656	3
6657	4
6658	4
6659	4
6660	4
6661	7
6662	2
6663	1
6664	3
6665	1
6666	4
6667	2
6668	3
6669	0
6670	1
6671	1
6672	2
6673	2
6674	2
6675	0
6676	2
6677	3
6678	3
6679	1
6680	3
6681	1
6682	3
6683	3
6684	4
6685	4
6686	3
6687	2
6688	2
6689	3
6690	3
6691	4
6692	3
6693	1
6694	1
6695	5
6696	3
6697	4
6698	3
6699	3
6700	4
6701	5
6702	2
6703	2
6704	1
6705	3
6706	2
6707	1
6708	4
6709	3
6710	3
6711	2
6712	2
6713	2
6714	4
6715	1
6716	2
6717	2
6718	2
6719	1
6720	3
6721	2
6722	2
6723	4
6724	2
6725	4
6726	0
6727	3
6728	1
6729	4
6730	1
6731	2
6732	5
6733	0
6734	4
6735	0
6736	2
6737	2
6738	3
6739	2
6740	3
6741	1
6742	3
6743	4
6744	5
6745	2
6746	2
6747	5
6748	1
6749	2
6750	4
6751	6
6752	1
6753	3
6754	2
6755	2
6756	2
6757	4
6758	3
6759	3
6760	4
6761	0
6762	7
6763	5
6764	2
6765	1
6766	2
6767	4
6768	5
6769	3
6770	4
6771	1
6772	1
6773	2
6774	3
6775	5
6776	2
6777	4
6778	2
6779	4
6780	5
6781	8
6782	3
6783	5
6784	3
6785	2
6786	3
6787	1
6788	0
6789	4
6790	2
6791	3
6792	3
6793	3
6794	4
6795	2
6796	4
6797	1
6798	1
6799	0
6800	2
6801	3
6802	1
6803	1
6804	3
6805	8
6806	4
6807	2
6808	3
6809	1
6810	3
6811	5
6812	3
6813	1
6814	2
6815	5
6816	2
6817	1
6818	8
6819	3
6820	1
6821	6
6822	6
6823	1
6824	5
6825	2
6826	2
6827	2
6828	4
6829	3
6830	3
6831	3
6832	3
6833	2
6834	4
6835	3
6836	9
6837	22
6838	38
6839	60
6840	67
6841	109
6842	114
6843	111
6844	70
6845	74
6846	49
6847	36
6848	26
6849	8
6850	5
6851	2
6852	2
6853	2
6854	0
6855	3
6856	2
6857	0
6858	1
6859	2
6860	1
6861	3
6862	2
6863	2
6864	6
6865	2
6866	4
6867	1
6868	5
6869	3
6870	2
6871	2
6872	2
6873	0
6874	2
6875	2
6876	5
6877	3
6878	2
6879	3
6880	5
6881	2
6882	1
6883	2
6884	0
6885	0
6886	1
6887	4
6888	4
6889	3
6890	1
6891	4
6892	2
6893	7
6894	3
6895	2
6896	2
6897	0
6898	5
6899	8
6900	4
6901	4
6902	1
6903	3
6904	2
6905	2
6906	1
6907	4
6908	1
6909	3
6910	0
6911	0
6912	4
6913	5
6914	3
6915	3
6916	4
6917	0
6918	1
6919	1
6920	6
6921	1
6922	2
6923	6
6924	3
6925	2
6926	5
6927	1
6928	3
6929	3
6930	1
6931	0
6932	4
6933	1
6934	4
6935	1
6936	4
6937	4
6938	2
6939	0
6940	2
6941	5
6942	1
6943	1
6944	3
6945	2
6946	2
6947	0
6948	1
6949	2
6950	5
6951	2
6952	7
6953	4
6954	1
6955	2
6956	1
6957	1
6958	3
6959	1
6960	3
6961	4
6962	4
6963	2
6964	3
6965	2
6966	5
6967	2
6968	3
6969	1
6970	2
6971	5
6972	3
6973	4
6974	2
6975	1
6976	1
6977	4
6978	2
6979	0
6980	2
6981	2
6982	2
6983	1
6984	0
6985	3
6986	4
6987	4
6988	5
6989	3
6990	2
6991	2
6992	0
6993	4
6994	2
6995	4
6996	4
6997	2
6998	3
6999	0
7000	1
7001	3
7002	4
7003	3
7004	4
7005	0
7006	3
7007	1
7008	1
7009	2
7010	1
7011	2
7012	2
7013	2
7014	5
7015	1
7016	1
7017	3
7018	1
7019	1
7020	0
7021	1
7022	1
7023	4
7024	2
7025	2
7026	2
7027	2
7028	2
7029	7
7030	1
7031	3
7032	0
7033	1
7034	2
7035	4
7036	3
7037	2
7038	3
7039	2
7040	3
7041	3
7042	3
7043	3
7044	0
7045	5
7046	1
7047	2
7048	2
7049	3
7050	1
7051	8
7052	3
7053	3
7054	2
7055	2
7056	2
7057	0
7058	5
7059	5
7060	0
7061	4
7062	0
7063	4
7064	2
7065	1
7066	1
7067	0
7068	1
7069	3
7070	1
7071	3
7072	1
7073	2
7074	4
7075	1
7076	1
7077	3
7078	1
7079	2
7080	2
7081	4
7082	2
7083	1
7084	0
7085	1
7086	1
7087	0
7088	1
7089	2
7090	1
7091	2
7092	1
7093	4
7094	3
7095	0
7096	1
7097	0
7098	1
7099	1
7100	0
7101	4
7102	2
7103	1
7104	3
7105	2
7106	0
7107	1
7108	4
7109	2
7110	0
7111	4
7112	2
7113	1
7114	0
7115	1
7116	2
7117	0
7118	1
7119	1
7120	5
7121	2
7122	5
7123	2
7124	2
7125	3
7126	1
7127	4
7128	3
7129	4
7130	2
7131	2
7132	3
7133	3
7134	5
7135	4
7136	2
7137	1
7138	2
7139	2
7140	2
7141	4
7142	3
7143	7
7144	2
7145	6
7146	2
7147	3
7148	3
7149	2
7150	1
7151	2
7152	2
7153	3
7154	1
7155	2
7156	6
7157	4
7158	0
7159	2
7160	2
7161	1
7162	2
7163	0
7164	4
7165	2
7166	3
7167	4
7168	1
7169	9
7170	3
7171	3
7172	0
7173	3
7174	1
7175	6
7176	2
7177	1
7178	3
7179	4
7180	2
7181	0
7182	1
7183	3
7184	1
7185	4
7186	1
7187	2
7188	1
7189	3
7190	3
7191	1
7192	6
7193	3
7194	2
7195	1
7196	4
7197	3
7198	2
7199	3
7200	1
7201	1
7202	3
7203	3
7204	3
7205	3
7206	1
7207	2
7208	3
7209	3
7210	3
7211	0
7212	0
7213	3
7214	0
7215	1
7216	2
7217	3
7218	4
7219	5
7220	4
7221	2
7222	4
7223	3
7224	1
7225	3
7226	4
7227	2
7228	6
7229	2
7230	2
7231	3
7232	4
7233	2
7234	2
7235	0
7236	5
7237	0
7238	1
7239	2
7240	3
7241	1
7242	0
7243	4
7244	3
7245	2
7246	6
7247	3
7248	4
7249	2
7250	3
7251	0
7252	4
7253	4
7254	2
7255	3
7256	3
7257	3
7258	3
7259	3
7260	4
7261	2
7262	2
7263	4
7264	1
7265	1
7266	5
7267	5
7268	0
7269	2
7270	4
7271	5
7272	1
7273	3
7274	4
7275	0
7276	1
7277	3
7278	1
7279	1
7280	0
7281	2
7282	1
7283	0
7284	1
7285	1
7286	2
7287	4
7288	3
7289	8
7290	3
7291	3
7292	0
7293	2
7294	5
7295	3
7296	2
7297	4
7298	6
7299	1
7300	2
7301	2
7302	5
7303	0
7304	0
7305	2
7306	3
7307	6
7308	3
7309	0
7310	3
7311	2
7312	1
7313	3
7314	2
7315	1
7316	0
7317	0
7318	2
7319	2
7320	2
7321	1
7322	5
7323	4
7324	2
7325	1
7326	4
7327	2
7328	2
7329	3
7330	3
7331	2
7332	5
7333	2
7334	3
7335	0
7336	2
7337	2
7338	1
7339	0
7340	1
7341	0
7342	1
7343	3
7344	1
7345	2
7346	0
7347	3
7348	3
7349	5
7350	4
7351	1
7352	1
7353	2
7354	3
7355	1
7356	4
7357	7
7358	2
7359	5
7360	1
7361	1
7362	5
7363	1
7364	1
7365	1
7366	3
7367	2
7368	3
7369	4
7370	1
7371	2
7372	2
7373	2
7374	2
7375	2
7376	1
7377	1
7378	2
7379	1
7380	1
7381	1
7382	3
7383	5
7384	3
7385	2
7386	2
7387	2
7388	3
7389	2
7390	2
7391	3
7392	2
7393	1
7394	4
7395	1
7396	2
7397	0
7398	4
7399	4
7400	4
7401	2
7402	0
7403	3
7404	3
7405	3
7406	3
7407	2
7408	2
7409	0
7410	3
7411	3
7412	3
7413	3
7414	4
7415	1
7416	1
7417	4
7418	5
7419	5
7420	0
7421	5
7422	1
7423	1
7424	3
7425	3
7426	1
7427	2
7428	0
7429	2
7430	3
7431	2
7432	1
7433	5
7434	1
7435	3
7436	2
7437	2
7438	4
7439	3
7440	3
7441	5
7442	1
7443	1
7444	3
7445	4
7446	2
7447	0
7448	5
7449	3
7450	2
7451	4
7452	0
7453	3
7454	1
7455	2
7456	4
7457	2
7458	3
7459	1
7460	3
7461	4
7462	2
7463	1
7464	2
7465	1
7466	2
7467	3
7468	3
7469	4
7470	2
7471	1
7472	2
7473	2
7474	3
7475	4
7476	2
7477	4
7478	1
7479	0
7480	4
7481	1
7482	4
7483	0
7484	1
7485	1
7486	1
7487	2
7488	1
7489	6
7490	2
7491	5
7492	1
7493	2
7494	1
7495	3
7496	4
7497	8
7498	2
7499	2
7500	0
7501	1
7502	2
7503	2
7504	0
7505	3
7506	1
7507	1
7508	1
7509	7
7510	1
7511	2
7512	2
7513	2
7514	3
7515	2
7516	1
7517	2
7518	2
7519	3
7520	2
7521	2
7522	1
7523	2
7524	0
7525	1
7526	3
7527	3
7528	0
7529	2
7530	1
7531	0
7532	3
7533	1
7534	2
7535	0
7536	3
7537	3
7538	0
7539	2
7540	3
7541	2
7542	1
7543	2
7544	0
7545	4
7546	2
7547	4
7548	5
7549	2
7550	1
7551	2
7552	0
7553	2
7554	1
7555	4
7556	2
7557	3
7558	2
7559	3
7560	3
7561	2
7562	1
7563	3
7564	1
7565	1
7566	0
7567	1
7568	0
7569	3
7570	1
7571	1
7572	3
7573	0
7574	3
7575	2
7576	3
7577	1
7578	4
7579	2
7580	3
7581	4
7582	4
7583	3
7584	1
7585	1
7586	4
7587	4
7588	5
7589	3
7590	3
7591	2
7592	0
7593	2
7594	5
7595	0
7596	1
7597	0
7598	3
7599	2
7600	1
7601	2
7602	3
7603	4
7604	4
7605	2
7606	2
7607	6
7608	4
7609	1
7610	4
7611	3
7612	1
7613	2
7614	3
7615	4
7616	2
7617	0
7618	3
7619	2
7620	0
7621	0
7622	4
7623	3
7624	4
7625	1
7626	2
7627	3
7628	3
7629	2
7630	3
7631	2
7632	1
7633	4
7634	3
7635	2
7636	3
7637	0
7638	3
7639	4
7640	2
7641	1
7642	1
7643	0
7644	2
7645	4
7646	1
7647	2
7648	1
7649	0
7650	1
7651	2
7652	2
7653	2
7654	2
7655	2
7656	0
7657	4
7658	2
7659	2
7660	3
7661	1
7662	1
7663	0
7664	3
7665	3
7666	4
7667	2
7668	1
7669	1
7670	2
7671	3
7672	0
7673	2
7674	4
7675	2
7676	1
7677	1
7678	1
7679	1
7680	2
7681	2
7682	1
7683	1
7684	1
7685	3
7686	2
7687	1
7688	4
7689	0
7690	7
7691	1
7692	1
7693	1
7694	3
7695	4
7696	2
7697	1
7698	0
7699	0
7700	3
7701	2
7702	2
7703	3
7704	3
7705	3
7706	1
7707	1
7708	1
7709	1
7710	1
7711	3
7712	1
7713	1
7714	2
7715	3
7716	3
7717	1
7718	1
7719	1
7720	1
7721	2
7722	1
7723	1
7724	1
7725	2
7726	1
7727	2
7728	3
7729	5
7730	0
7731	0
7732	4
7733	0
7734	2
7735	0
7736	1
7737	3
7738	0
7739	4
7740	1
7741	4
7742	1
7743	1
7744	3
7745	2
7746	2
7747	2
7748	2
7749	2
7750	1
7751	4
7752	0
7753	2
7754	2
7755	4
7756	2
7757	3
7758	1
7759	2
7760	3
7761	1
7762	1
7763	2
7764	2
7765	1
7766	2
7767	4
7768	3
7769	3
7770	2
7771	3
7772	4
7773	2
7774	0
7775	1
7776	1
7777	1
7778	1
7779	1
7780	0
7781	5
7782	3
7783	3
7784	1
7785	2
7786	1
7787	4
7788	1
7789	2
7790	4
7791	1
7792	1
7793	0
7794	2
7795	2
7796	3
7797	3
7798	3
7799	3
7800	0
7801	1
7802	0
7803	1
7804	1
7805	2
7806	1
7807	1
7808	2
7809	1
7810	0
7811	2
7812	1
7813	0
7814	2
7815	2
7816	2
7817	1
7818	2
7819	2
7820	3
7821	3
7822	2
7823	0
7824	6
7825	2
7826	4
7827	2
7828	2
7829	1
7830	0
7831	1
7832	2
7833	1
7834	4
7835	1
7836	1
7837	3
7838	3
7839	1
7840	1
7841	3
7842	2
7843	1
7844	5
7845	2
7846	0
7847	1
7848	4
7849	3
7850	6
7851	3
7852	2
7853	2
7854	1
7855	5
7856	5
7857	3
7858	4
7859	1
7860	0
7861	0
7862	5
7863	1
7864	1
7865	3
7866	2
7867	3
7868	3
7869	1
7870	4
7871	6
7872	3
7873	3
7874	0
7875	2
7876	4
7877	0
7878	4
7879	1
7880	3
7881	1
7882	0
7883	4
7884	3
7885	3
7886	2
7887	1
7888	1
7889	1
7890	1
7891	1
7892	2
7893	2
7894	4
7895	3
7896	2
7897	2
7898	1
7899	0
7900	4
7901	4
7902	2
7903	2
7904	0
7905	5
7906	0
7907	1
7908	1
7909	1
7910	2
7911	1
7912	2
7913	3
7914	2
7915	2
7916	3
7917	3
7918	3
7919	0
7920	1
7921	1
7922	2
7923	1
7924	2
7925	0
7926	0
7927	4
7928	5
7929	2
7930	1
7931	1
7932	4
7933	1
7934	1
7935	2
7936	3
7937	4
7938	1
7939	2
7940	2
7941	1
7942	0
7943	4
7944	0
7945	1
7946	4
7947	4
7948	0
7949	5
7950	2
7951	0
7952	4
7953	0
7954	3
7955	2
7956	0
7957	3
7958	1
7959	2
7960	0
7961	1
7962	1
7963	2
7964	0
7965	3
7966	1
7967	1
7968	3
7969	2
7970	2
7971	2
7972	3
7973	2
7974	1
7975	2
7976	2
7977	3
7978	0
7979	1
7980	2
7981	1
7982	2
7983	3
7984	5
7985	1
7986	4
7987	5
7988	1
7989	3
7990	2
7991	4
7992	0
7993	0
7994	1
7995	2
7996	1
7997	1
7998	0
7999	1
8000	3
8001	1
8002	2
8003	2
8004	0
8005	1
8006	0
8007	1
8008	2
8009	0
8010	2
8011	1
8012	1
8013	1
8014	2
8015	3
8016	1
8017	1
8018	2
8019	3
8020	5
8021	1
8022	1
8023	2
8024	1
8025	2
8026	3
8027	0
8028	1
8029	6
8030	4
8031	5
8032	1
8033	4
8034	2
8035	3
8036	2
8037	1
8038	3
8039	2
8040	2
8041	1
8042	1
8043	3
8044	1
8045	4
8046	3
8047	0
8048	2
8049	2
8050	1
8051	2
8052	2
8053	1
8054	3
8055	0
8056	1
8057	2
8058	1
8059	4
8060	1
8061	2
8062	4
8063	1
8064	0
8065	0
8066	0
8067	0
8068	0
8069	0
8070	0
8071	0
8072	0
8073	0
8074	0
8075	0
8076	0
8077	0
8078	0
8079	0
8080	0
8081	0
8082	0
8083	0
8084	0
8085	0
8086	0
8087	0
8088	0
8089	0
8090	0
8091	0
8092	0
8093	0
8094	0
8095	0
8096	0
8097	0
8098	0
8099	0
8100	0
8101	0
8102	0
8103	0
8104	0
8105	0
8106	0
8107	0
8108	0
8109	0
8110	0
8111	0
8112	0
8113	0
8114	0
8115	0
8116	0
8117	0
8118	0
8119	0
8120	0
8121	0
8122	0
8123	0
8124	0
8125	0
8126	0
8127	0
8128	0
8129	0
8130	0
8131	0
8132	0
8133	0
8134	0
8135	0
8136	0
8137	0
8138	0
8139	0
8140	0
8141	0
8142	0
8143	0
8144	0
8145	0
8146	0
8147	0
8148	0
8149	0
8150	0
8151	0
8152	0
8153	0
8154	0
8155	0
8156	0
8157	0
8158	0
8159	0
8160	0
8161	0
8162	0
8163	0
8164	0
8165	0
8166	0
8167	0
8168	0
8169	0
8170	0
8171	0
8172	0
8173	0
8174	0
8175	0
8176	0
8177	0
8178	0
8179	0
8180	0
8181	0
8182	0
8183	0
8184	0
8185	0
8186	0
8187	0
8188	0
8189	0
8190	0
8191	0
