0	0
1	0
2	0
3	0
4	0
5	0
6	0
7	0
8	0
9	0
10	0
11	0
12	0
13	0
14	0
15	0
16	0
17	0
18	0
19	0
20	0
21	0
22	0
23	0
24	0
25	0
26	0
27	0
28	0
29	0
30	0
31	0
32	0
33	0
34	0
35	0
36	0
37	0
38	0
39	0
40	0
41	0
42	0
43	0
44	0
45	0
46	0
47	0
48	0
49	0
50	0
51	0
52	0
53	0
54	0
55	0
56	0
57	0
58	0
59	0
60	0
61	0
62	0
63	0
64	0
65	0
66	0
67	0
68	0
69	0
70	0
71	0
72	0
73	0
74	0
75	0
76	0
77	0
78	0
79	0
80	0
81	0
82	0
83	0
84	0
85	0
86	0
87	0
88	0
89	0
90	0
91	0
92	0
93	0
94	0
95	0
96	0
97	0
98	0
99	0
100	0
101	0
102	0
103	0
104	0
105	0
106	0
107	0
108	0
109	0
110	0
111	0
112	0
113	0
114	0
115	0
116	0
117	1
118	109
119	555
120	946
121	1105
122	1062
123	1105
124	1029
125	1039
126	1090
127	1012
128	1041
129	1014
130	1022
131	946
132	915
133	985
134	911
135	916
136	951
137	902
138	878
139	912
140	913
141	837
142	886
143	847
144	807
145	867
146	866
147	842
148	833
149	805
150	827
151	829
152	806
153	806
154	863
155	766
156	787
157	751
158	774
159	742
160	767
161	758
162	776
163	747
164	752
165	799
166	819
167	679
168	706
169	738
170	731
171	737
172	763
173	672
174	725
175	705
176	694
177	653
178	752
179	686
180	678
181	652
182	717
183	671
184	728
185	709
186	683
187	691
188	779
189	800
190	684
191	650
192	672
193	670
194	674
195	677
196	697
197	696
198	653
199	718
200	718
201	682
202	677
203	683
204	686
205	746
206	730
207	759
208	711
209	704
210	723
211	708
212	716
213	733
214	680
215	700
216	749
217	721
218	780
219	749
220	756
221	747
222	777
223	764
224	770
225	822
226	783
227	776
228	826
229	811
230	913
231	1007
232	1049
233	1039
234	872
235	827
236	852
237	864
238	871
239	947
240	908
241	911
242	950
243	858
244	869
245	897
246	903
247	906
248	898
249	988
250	933
251	916
252	914
253	931
254	1039
255	964
256	1043
257	1032
258	1056
259	1192
260	1604
261	2051
262	2099
263	1862
264	1253
265	1355
266	2093
267	2817
268	2817
269	2149
270	1337
271	857
272	891
273	925
274	938
275	879
276	913
277	944
278	870
279	884
280	874
281	857
282	911
283	916
284	1061
285	1108
286	1096
287	1091
288	1019
289	936
290	947
291	1053
292	1276
293	1589
294	1671
295	1440
296	1078
297	977
298	985
299	1170
300	1335
301	1399
302	1232
303	1056
304	896
305	998
306	1223
307	1523
308	1635
309	1773
310	1468
311	1198
312	897
313	910
314	843
315	870
316	812
317	795
318	783
319	749
320	818
321	838
322	862
323	950
324	927
325	927
326	864
327	856
328	863
329	784
330	770
331	835
332	787
333	782
334	804
335	752
336	801
337	834
338	853
339	848
340	969
341	967
342	937
343	839
344	797
345	799
346	834
347	842
348	823
349	837
350	822
351	874
352	841
353	836
354	816
355	813
356	818
357	870
358	818
359	896
360	881
361	837
362	828
363	819
364	839
365	904
366	902
367	889
368	853
369	814
370	766
371	808
372	808
373	810
374	806
375	743
376	722
377	856
378	783
379	820
380	821
381	784
382	850
383	842
384	790
385	825
386	819
387	752
388	829
389	830
390	802
391	857
392	868
393	805
394	835
395	785
396	839
397	848
398	847
399	845
400	962
401	1043
402	1105
403	1069
404	943
405	820
406	819
407	806
408	842
409	810
410	843
411	813
412	766
413	862
414	796
415	841
416	793
417	830
418	787
419	781
420	811
421	786
422	810
423	757
424	810
425	820
426	841
427	811
428	758
429	874
430	845
431	865
432	823
433	788
434	792
435	821
436	839
437	775
438	845
439	882
440	953
441	926
442	873
443	808
444	754
445	844
446	791
447	777
448	759
449	754
450	770
451	802
452	775
453	768
454	784
455	824
456	800
457	770
458	790
459	750
460	795
461	807
462	721
463	782
464	813
465	833
466	908
467	933
468	882
469	821
470	783
471	766
472	733
473	737
474	785
475	735
476	703
477	765
478	742
479	741
480	731
481	732
482	807
483	716
484	732
485	698
486	732
487	736
488	682
489	763
490	753
491	791
492	734
493	740
494	695
495	753
496	695
497	718
498	690
499	710
500	729
501	686
502	713
503	649
504	664
505	687
506	669
507	712
508	680
509	725
510	717
511	682
512	654
513	722
514	707
515	687
516	641
517	675
518	669
519	686
520	718
521	703
522	633
523	633
524	698
525	703
526	696
527	756
528	694
529	672
530	670
531	707
532	651
533	665
534	656
535	708
536	698
537	630
538	709
539	714
540	639
541	645
542	699
543	700
544	715
545	695
546	780
547	1046
548	1292
549	1484
550	1481
551	1135
552	889
553	669
554	693
555	675
556	675
557	638
558	634
559	694
560	631
561	662
562	674
563	637
564	614
565	655
566	656
567	627
568	670
569	677
570	659
571	644
572	577
573	639
574	629
575	634
576	626
577	635
578	620
579	656
580	683
581	645
582	726
583	665
584	630
585	615
586	650
587	598
588	619
589	576
590	666
591	680
592	608
593	593
594	594
595	643
596	613
597	663
598	667
599	656
600	645
601	605
602	585
603	610
604	641
605	585
606	565
607	657
608	887
609	1068
610	1011
611	854
612	725
613	596
614	574
615	584
616	539
617	558
618	585
619	554
620	562
621	526
622	544
623	558
624	594
625	616
626	592
627	621
628	600
629	573
630	557
631	588
632	561
633	585
634	574
635	588
636	585
637	575
638	573
639	589
640	592
641	612
642	535
643	589
644	585
645	579
646	600
647	536
648	575
649	585
650	595
651	568
652	538
653	543
654	549
655	597
656	575
657	561
658	554
659	534
660	562
661	595
662	536
663	582
664	533
665	515
666	565
667	531
668	555
669	582
670	555
671	559
672	559
673	526
674	525
675	567
676	603
677	603
678	607
679	636
680	641
681	599
682	720
683	1473
684	3391
685	5147
686	5493
687	4475
688	2312
689	947
690	763
691	923
692	1147
693	1400
694	1292
695	1144
696	955
697	651
698	472
699	427
700	486
701	478
702	450
703	438
704	437
705	448
706	476
707	415
708	442
709	471
710	416
711	464
712	450
713	433
714	442
715	447
716	444
717	440
718	412
719	418
720	430
721	489
722	460
723	466
724	408
725	445
726	411
727	446
728	402
729	438
730	440
731	406
732	457
733	442
734	477
735	444
736	406
737	446
738	487
739	453
740	434
741	414
742	393
743	418
744	425
745	397
746	399
747	427
748	379
749	408
750	397
751	453
752	421
753	422
754	404
755	362
756	396
757	393
758	402
759	421
760	412
761	392
762	386
763	402
764	439
765	577
766	679
767	808
768	743
769	652
770	558
771	477
772	401
773	362
774	364
775	411
776	400
777	362
778	413
779	412
780	404
781	384
782	363
783	366
784	450
785	558
786	580
787	573
788	490
789	410
790	414
791	423
792	437
793	384
794	404
795	383
796	381
797	383
798	360
799	382
800	384
801	387
802	405
803	365
804	389
805	336
806	370
807	364
808	369
809	387
810	374
811	378
812	363
813	392
814	390
815	380
816	397
817	370
818	355
819	393
820	366
821	344
822	365
823	361
824	372
825	368
826	343
827	336
828	365
829	554
830	964
831	1693
832	1951
833	1876
834	1285
835	622
836	419
837	337
838	345
839	340
840	348
841	371
842	369
843	518
844	643
845	672
846	575
847	498
848	337
849	367
850	350
851	338
852	354
853	310
854	347
855	336
856	358
857	337
858	317
859	297
860	348
861	315
862	349
863	331
864	291
865	321
866	339
867	334
868	335
869	321
870	311
871	322
872	320
873	348
874	322
875	315
876	317
877	334
878	322
879	328
880	296
881	355
882	276
883	302
884	310
885	304
886	320
887	311
888	304
889	308
890	331
891	319
892	312
893	295
894	327
895	296
896	316
897	311
898	327
899	282
900	307
901	296
902	292
903	354
904	329
905	315
906	346
907	314
908	323
909	346
910	336
911	296
912	294
913	363
914	377
915	414
916	494
917	548
918	494
919	409
920	353
921	332
922	342
923	309
924	319
925	301
926	313
927	336
928	296
929	318
930	340
931	323
932	305
933	290
934	306
935	300
936	288
937	285
938	312
939	280
940	351
941	454
942	880
943	1216
944	1337
945	1133
946	755
947	407
948	321
949	298
950	305
951	317
952	313
953	272
954	305
955	269
956	317
957	268
958	290
959	279
960	287
961	296
962	269
963	247
964	275
965	275
966	279
967	277
968	259
969	294
970	267
971	308
972	269
973	273
974	301
975	369
976	690
977	1533
978	2591
979	3062
980	2685
981	1708
982	810
983	375
984	257
985	265
986	279
987	280
988	278
989	247
990	285
991	242
992	246
993	261
994	281
995	227
996	285
997	233
998	237
999	239
1000	276
1001	236
1002	245
1003	260
1004	252
1005	251
1006	264
1007	248
1008	244
1009	241
1010	242
1011	244
1012	254
1013	255
1014	244
1015	239
1016	232
1017	253
1018	259
1019	261
1020	227
1021	229
1022	283
1023	242
1024	258
1025	238
1026	240
1027	249
1028	239
1029	242
1030	256
1031	266
1032	253
1033	249
1034	274
1035	228
1036	242
1037	249
1038	228
1039	259
1040	254
1041	216
1042	234
1043	244
1044	225
1045	257
1046	232
1047	236
1048	248
1049	253
1050	223
1051	225
1052	213
1053	233
1054	230
1055	244
1056	228
1057	215
1058	261
1059	262
1060	248
1061	252
1062	249
1063	240
1064	227
1065	244
1066	254
1067	253
1068	274
1069	261
1070	272
1071	271
1072	267
1073	258
1074	259
1075	264
1076	224
1077	229
1078	204
1079	214
1080	226
1081	240
1082	250
1083	228
1084	227
1085	245
1086	230
1087	250
1088	250
1089	228
1090	253
1091	228
1092	226
1093	259
1094	253
1095	220
1096	210
1097	235
1098	248
1099	237
1100	232
1101	233
1102	244
1103	285
1104	225
1105	238
1106	254
1107	261
1108	258
1109	266
1110	232
1111	237
1112	225
1113	218
1114	230
1115	230
1116	235
1117	238
1118	244
1119	252
1120	268
1121	209
1122	240
1123	217
1124	216
1125	260
1126	290
1127	309
1128	360
1129	350
1130	294
1131	242
1132	205
1133	237
1134	214
1135	228
1136	202
1137	212
1138	219
1139	215
1140	211
1141	221
1142	213
1143	228
1144	244
1145	225
1146	181
1147	210
1148	210
1149	182
1150	208
1151	224
1152	215
1153	215
1154	199
1155	191
1156	243
1157	210
1158	215
1159	189
1160	214
1161	231
1162	213
1163	212
1164	201
1165	206
1166	205
1167	227
1168	217
1169	205
1170	223
1171	208
1172	223
1173	201
1174	213
1175	232
1176	225
1177	209
1178	201
1179	192
1180	221
1181	192
1182	198
1183	207
1184	220
1185	182
1186	203
1187	214
1188	219
1189	207
1190	178
1191	203
1192	209
1193	210
1194	222
1195	194
1196	190
1197	189
1198	221
1199	205
1200	208
1201	205
1202	197
1203	206
1204	229
1205	220
1206	245
1207	206
1208	214
1209	232
1210	182
1211	200
1212	204
1213	187
1214	186
1215	202
1216	177
1217	163
1218	164
1219	215
1220	207
1221	195
1222	170
1223	187
1224	205
1225	189
1226	186
1227	187
1228	193
1229	197
1230	203
1231	178
1232	170
1233	192
1234	204
1235	170
1236	161
1237	173
1238	193
1239	187
1240	214
1241	221
1242	194
1243	215
1244	194
1245	219
1246	184
1247	186
1248	202
1249	187
1250	202
1251	203
1252	187
1253	195
1254	199
1255	171
1256	179
1257	202
1258	185
1259	166
1260	171
1261	198
1262	211
1263	224
1264	278
1265	385
1266	442
1267	481
1268	418
1269	286
1270	237
1271	174
1272	200
1273	176
1274	195
1275	176
1276	169
1277	182
1278	170
1279	165
1280	197
1281	178
1282	189
1283	210
1284	167
1285	188
1286	165
1287	169
1288	163
1289	186
1290	174
1291	188
1292	177
1293	170
1294	184
1295	179
1296	171
1297	193
1298	198
1299	201
1300	190
1301	153
1302	163
1303	179
1304	182
1305	185
1306	184
1307	160
1308	167
1309	137
1310	202
1311	180
1312	206
1313	185
1314	208
1315	170
1316	163
1317	185
1318	179
1319	166
1320	174
1321	177
1322	170
1323	187
1324	167
1325	198
1326	172
1327	159
1328	176
1329	159
1330	200
1331	192
1332	157
1333	175
1334	176
1335	159
1336	168
1337	163
1338	184
1339	167
1340	181
1341	155
1342	191
1343	177
1344	185
1345	168
1346	173
1347	175
1348	150
1349	153
1350	165
1351	188
1352	155
1353	157
1354	164
1355	183
1356	150
1357	161
1358	170
1359	165
1360	177
1361	173
1362	148
1363	166
1364	161
1365	165
1366	156
1367	165
1368	170
1369	176
1370	166
1371	175
1372	159
1373	180
1374	149
1375	155
1376	172
1377	163
1378	199
1379	170
1380	155
1381	186
1382	172
1383	209
1384	195
1385	243
1386	294
1387	376
1388	554
1389	774
1390	915
1391	1005
1392	765
1393	579
1394	441
1395	315
1396	267
1397	214
1398	197
1399	194
1400	194
1401	160
1402	159
1403	168
1404	144
1405	163
1406	168
1407	166
1408	169
1409	151
1410	141
1411	166
1412	179
1413	154
1414	159
1415	140
1416	159
1417	157
1418	155
1419	149
1420	154
1421	175
1422	135
1423	157
1424	170
1425	164
1426	145
1427	148
1428	183
1429	155
1430	157
1431	132
1432	168
1433	133
1434	149
1435	173
1436	141
1437	136
1438	144
1439	138
1440	188
1441	135
1442	131
1443	151
1444	147
1445	153
1446	148
1447	164
1448	162
1449	155
1450	168
1451	151
1452	156
1453	150
1454	156
1455	159
1456	156
1457	143
1458	153
1459	155
1460	150
1461	148
1462	149
1463	151
1464	166
1465	151
1466	128
1467	152
1468	149
1469	166
1470	157
1471	147
1472	136
1473	134
1474	149
1475	151
1476	162
1477	133
1478	158
1479	136
1480	144
1481	160
1482	163
1483	163
1484	139
1485	140
1486	181
1487	146
1488	150
1489	140
1490	156
1491	150
1492	171
1493	141
1494	122
1495	133
1496	147
1497	119
1498	153
1499	142
1500	154
1501	164
1502	153
1503	146
1504	149
1505	146
1506	147
1507	155
1508	140
1509	132
1510	143
1511	148
1512	140
1513	140
1514	150
1515	166
1516	142
1517	165
1518	144
1519	156
1520	153
1521	153
1522	160
1523	163
1524	193
1525	189
1526	191
1527	169
1528	166
1529	149
1530	120
1531	169
1532	154
1533	137
1534	146
1535	148
1536	137
1537	161
1538	155
1539	135
1540	151
1541	159
1542	182
1543	161
1544	134
1545	167
1546	135
1547	159
1548	167
1549	141
1550	146
1551	144
1552	153
1553	151
1554	130
1555	133
1556	136
1557	150
1558	160
1559	168
1560	129
1561	128
1562	147
1563	136
1564	148
1565	134
1566	154
1567	136
1568	170
1569	154
1570	156
1571	147
1572	148
1573	176
1574	235
1575	527
1576	1003
1577	1637
1578	1813
1579	1511
1580	1019
1581	505
1582	274
1583	164
1584	133
1585	133
1586	119
1587	140
1588	146
1589	144
1590	148
1591	162
1592	127
1593	136
1594	117
1595	141
1596	152
1597	132
1598	145
1599	135
1600	136
1601	139
1602	149
1603	135
1604	121
1605	133
1606	125
1607	132
1608	127
1609	169
1610	153
1611	164
1612	155
1613	172
1614	141
1615	151
1616	147
1617	165
1618	148
1619	146
1620	154
1621	146
1622	152
1623	150
1624	154
1625	136
1626	159
1627	147
1628	146
1629	148
1630	169
1631	148
1632	171
1633	157
1634	145
1635	150
1636	149
1637	155
1638	125
1639	123
1640	175
1641	189
1642	337
1643	793
1644	1537
1645	2088
1646	2166
1647	1812
1648	1042
1649	456
1650	231
1651	162
1652	144
1653	168
1654	116
1655	117
1656	117
1657	121
1658	131
1659	130
1660	104
1661	145
1662	134
1663	120
1664	136
1665	135
1666	136
1667	121
1668	142
1669	124
1670	127
1671	131
1672	120
1673	129
1674	122
1675	127
1676	124
1677	123
1678	128
1679	131
1680	125
1681	111
1682	132
1683	106
1684	144
1685	98
1686	127
1687	117
1688	113
1689	121
1690	128
1691	129
1692	103
1693	139
1694	125
1695	129
1696	110
1697	135
1698	142
1699	129
1700	135
1701	110
1702	138
1703	109
1704	130
1705	116
1706	133
1707	111
1708	130
1709	121
1710	135
1711	129
1712	126
1713	125
1714	121
1715	146
1716	117
1717	112
1718	110
1719	149
1720	119
1721	95
1722	131
1723	141
1724	115
1725	130
1726	116
1727	129
1728	100
1729	119
1730	127
1731	123
1732	119
1733	112
1734	123
1735	95
1736	132
1737	124
1738	130
1739	132
1740	117
1741	113
1742	127
1743	120
1744	133
1745	137
1746	135
1747	116
1748	137
1749	128
1750	124
1751	138
1752	120
1753	146
1754	116
1755	113
1756	136
1757	128
1758	119
1759	112
1760	130
1761	117
1762	134
1763	139
1764	118
1765	111
1766	142
1767	131
1768	125
1769	111
1770	130
1771	133
1772	116
1773	127
1774	118
1775	123
1776	110
1777	110
1778	127
1779	116
1780	121
1781	121
1782	118
1783	127
1784	128
1785	122
1786	110
1787	131
1788	121
1789	160
1790	177
1791	174
1792	193
1793	157
1794	144
1795	127
1796	123
1797	139
1798	116
1799	118
1800	123
1801	134
1802	138
1803	128
1804	134
1805	118
1806	117
1807	113
1808	112
1809	126
1810	115
1811	99
1812	117
1813	131
1814	119
1815	113
1816	122
1817	121
1818	108
1819	117
1820	117
1821	115
1822	119
1823	135
1824	123
1825	127
1826	103
1827	133
1828	117
1829	122
1830	122
1831	117
1832	112
1833	117
1834	120
1835	121
1836	121
1837	126
1838	122
1839	113
1840	102
1841	129
1842	117
1843	103
1844	106
1845	116
1846	103
1847	117
1848	102
1849	135
1850	116
1851	104
1852	106
1853	104
1854	118
1855	125
1856	120
1857	127
1858	122
1859	117
1860	117
1861	127
1862	133
1863	137
1864	127
1865	157
1866	131
1867	121
1868	127
1869	137
1870	126
1871	120
1872	118
1873	143
1874	139
1875	126
1876	128
1877	124
1878	128
1879	143
1880	135
1881	120
1882	127
1883	152
1884	137
1885	143
1886	153
1887	131
1888	159
1889	145
1890	138
1891	138
1892	124
1893	128
1894	129
1895	120
1896	119
1897	112
1898	127
1899	129
1900	125
1901	135
1902	147
1903	116
1904	143
1905	107
1906	99
1907	95
1908	137
1909	110
1910	136
1911	121
1912	113
1913	104
1914	122
1915	120
1916	112
1917	132
1918	114
1919	119
1920	111
1921	109
1922	115
1923	127
1924	128
1925	109
1926	121
1927	133
1928	113
1929	127
1930	107
1931	103
1932	124
1933	121
1934	104
1935	126
1936	118
1937	130
1938	121
1939	111
1940	112
1941	111
1942	111
1943	125
1944	116
1945	102
1946	104
1947	134
1948	181
1949	241
1950	425
1951	436
1952	458
1953	323
1954	244
1955	154
1956	130
1957	94
1958	86
1959	85
1960	106
1961	114
1962	109
1963	134
1964	120
1965	106
1966	99
1967	79
1968	112
1969	104
1970	101
1971	110
1972	90
1973	119
1974	108
1975	120
1976	117
1977	111
1978	107
1979	111
1980	110
1981	126
1982	98
1983	98
1984	100
1985	103
1986	108
1987	119
1988	103
1989	119
1990	126
1991	146
1992	116
1993	126
1994	118
1995	108
1996	102
1997	109
1998	124
1999	107
2000	86
2001	99
2002	124
2003	102
2004	95
2005	107
2006	100
2007	111
2008	100
2009	122
2010	96
2011	96
2012	103
2013	104
2014	95
2015	115
2016	111
2017	122
2018	88
2019	107
2020	109
2021	101
2022	131
2023	144
2024	159
2025	141
2026	126
2027	123
2028	109
2029	118
2030	112
2031	106
2032	102
2033	117
2034	90
2035	84
2036	110
2037	101
2038	114
2039	93
2040	92
2041	109
2042	121
2043	104
2044	132
2045	125
2046	136
2047	121
2048	98
2049	109
2050	128
2051	128
2052	125
2053	131
2054	146
2055	166
2056	227
2057	255
2058	271
2059	230
2060	200
2061	141
2062	131
2063	110
2064	92
2065	121
2066	154
2067	136
2068	157
2069	137
2070	108
2071	106
2072	100
2073	107
2074	96
2075	101
2076	94
2077	92
2078	115
2079	102
2080	109
2081	108
2082	94
2083	96
2084	106
2085	81
2086	84
2087	89
2088	90
2089	86
2090	92
2091	107
2092	111
2093	115
2094	124
2095	109
2096	87
2097	110
2098	120
2099	120
2100	136
2101	172
2102	201
2103	170
2104	172
2105	127
2106	100
2107	109
2108	86
2109	96
2110	112
2111	102
2112	85
2113	92
2114	90
2115	101
2116	108
2117	113
2118	93
2119	89
2120	90
2121	82
2122	80
2123	108
2124	181
2125	223
2126	253
2127	267
2128	236
2129	193
2130	132
2131	117
2132	91
2133	101
2134	99
2135	92
2136	104
2137	98
2138	92
2139	112
2140	82
2141	84
2142	87
2143	95
2144	79
2145	88
2146	102
2147	98
2148	126
2149	87
2150	109
2151	105
2152	104
2153	96
2154	139
2155	177
2156	126
2157	142
2158	117
2159	91
2160	96
2161	82
2162	119
2163	78
2164	101
2165	65
2166	105
2167	89
2168	94
2169	97
2170	104
2171	82
2172	109
2173	94
2174	84
2175	76
2176	83
2177	94
2178	81
2179	88
2180	101
2181	107
2182	86
2183	79
2184	92
2185	94
2186	81
2187	90
2188	86
2189	97
2190	100
2191	86
2192	95
2193	80
2194	104
2195	79
2196	101
2197	90
2198	87
2199	84
2200	95
2201	89
2202	95
2203	105
2204	86
2205	86
2206	93
2207	99
2208	88
2209	82
2210	87
2211	98
2212	69
2213	76
2214	78
2215	82
2216	78
2217	108
2218	127
2219	126
2220	121
2221	100
2222	89
2223	100
2224	102
2225	91
2226	91
2227	82
2228	90
2229	115
2230	128
2231	159
2232	145
2233	155
2234	117
2235	115
2236	90
2237	80
2238	114
2239	109
2240	101
2241	126
2242	121
2243	154
2244	136
2245	117
2246	138
2247	116
2248	108
2249	106
2250	84
2251	104
2252	91
2253	105
2254	98
2255	88
2256	103
2257	110
2258	100
2259	96
2260	102
2261	81
2262	91
2263	98
2264	89
2265	82
2266	91
2267	87
2268	96
2269	95
2270	87
2271	79
2272	78
2273	76
2274	105
2275	77
2276	93
2277	84
2278	95
2279	78
2280	96
2281	96
2282	92
2283	85
2284	100
2285	72
2286	86
2287	80
2288	74
2289	87
2290	93
2291	95
2292	109
2293	130
2294	153
2295	216
2296	280
2297	292
2298	261
2299	173
2300	140
2301	103
2302	81
2303	73
2304	83
2305	92
2306	83
2307	74
2308	81
2309	96
2310	105
2311	84
2312	82
2313	70
2314	94
2315	85
2316	98
2317	101
2318	90
2319	89
2320	79
2321	85
2322	89
2323	84
2324	88
2325	81
2326	76
2327	86
2328	89
2329	95
2330	85
2331	95
2332	104
2333	101
2334	102
2335	89
2336	66
2337	84
2338	99
2339	68
2340	84
2341	116
2342	92
2343	81
2344	89
2345	93
2346	94
2347	84
2348	94
2349	85
2350	88
2351	80
2352	89
2353	92
2354	77
2355	95
2356	94
2357	91
2358	88
2359	79
2360	93
2361	92
2362	64
2363	102
2364	76
2365	88
2366	64
2367	71
2368	84
2369	92
2370	109
2371	100
2372	97
2373	73
2374	85
2375	96
2376	78
2377	83
2378	89
2379	99
2380	101
2381	102
2382	98
2383	102
2384	109
2385	75
2386	91
2387	82
2388	83
2389	73
2390	84
2391	102
2392	91
2393	110
2394	99
2395	94
2396	70
2397	77
2398	113
2399	85
2400	88
2401	103
2402	95
2403	88
2404	76
2405	110
2406	81
2407	85
2408	94
2409	117
2410	132
2411	121
2412	100
2413	101
2414	87
2415	86
2416	75
2417	94
2418	91
2419	94
2420	97
2421	87
2422	85
2423	125
2424	197
2425	433
2426	726
2427	919
2428	1129
2429	1018
2430	684
2431	398
2432	200
2433	122
2434	90
2435	71
2436	74
2437	83
2438	75
2439	80
2440	77
2441	93
2442	71
2443	79
2444	73
2445	86
2446	70
2447	70
2448	87
2449	87
2450	87
2451	78
2452	101
2453	77
2454	86
2455	87
2456	89
2457	77
2458	89
2459	83
2460	78
2461	95
2462	89
2463	68
2464	91
2465	76
2466	63
2467	77
2468	86
2469	97
2470	92
2471	95
2472	84
2473	68
2474	70
2475	81
2476	92
2477	78
2478	77
2479	82
2480	68
2481	98
2482	82
2483	76
2484	112
2485	132
2486	172
2487	189
2488	181
2489	150
2490	104
2491	104
2492	93
2493	75
2494	84
2495	89
2496	83
2497	81
2498	80
2499	79
2500	74
2501	77
2502	84
2503	77
2504	87
2505	87
2506	70
2507	77
2508	75
2509	83
2510	78
2511	96
2512	84
2513	88
2514	86
2515	85
2516	83
2517	76
2518	99
2519	82
2520	67
2521	77
2522	79
2523	77
2524	101
2525	120
2526	111
2527	117
2528	102
2529	112
2530	98
2531	120
2532	89
2533	98
2534	112
2535	108
2536	95
2537	83
2538	76
2539	73
2540	70
2541	76
2542	79
2543	66
2544	81
2545	62
2546	77
2547	87
2548	75
2549	90
2550	97
2551	98
2552	88
2553	94
2554	76
2555	80
2556	112
2557	71
2558	92
2559	85
2560	82
2561	99
2562	102
2563	114
2564	190
2565	218
2566	239
2567	251
2568	228
2569	158
2570	147
2571	87
2572	113
2573	123
2574	184
2575	310
2576	511
2577	631
2578	631
2579	509
2580	362
2581	214
2582	121
2583	99
2584	92
2585	83
2586	87
2587	65
2588	92
2589	78
2590	73
2591	100
2592	75
2593	79
2594	72
2595	89
2596	72
2597	89
2598	97
2599	88
2600	77
2601	76
2602	69
2603	86
2604	79
2605	95
2606	86
2607	103
2608	73
2609	68
2610	68
2611	74
2612	75
2613	77
2614	76
2615	88
2616	74
2617	76
2618	78
2619	63
2620	61
2621	75
2622	73
2623	82
2624	75
2625	73
2626	82
2627	80
2628	100
2629	85
2630	79
2631	86
2632	81
2633	74
2634	73
2635	89
2636	83
2637	89
2638	76
2639	82
2640	66
2641	75
2642	79
2643	75
2644	78
2645	85
2646	88
2647	76
2648	80
2649	78
2650	84
2651	71
2652	92
2653	88
2654	97
2655	87
2656	87
2657	79
2658	103
2659	104
2660	128
2661	98
2662	106
2663	118
2664	88
2665	95
2666	81
2667	79
2668	75
2669	72
2670	75
2671	89
2672	73
2673	99
2674	78
2675	78
2676	62
2677	88
2678	82
2679	74
2680	85
2681	84
2682	76
2683	81
2684	76
2685	89
2686	77
2687	90
2688	83
2689	77
2690	89
2691	84
2692	94
2693	67
2694	83
2695	93
2696	79
2697	107
2698	63
2699	79
2700	78
2701	82
2702	93
2703	80
2704	90
2705	82
2706	96
2707	75
2708	78
2709	82
2710	88
2711	90
2712	86
2713	81
2714	81
2715	95
2716	83
2717	76
2718	80
2719	83
2720	66
2721	75
2722	80
2723	79
2724	82
2725	91
2726	83
2727	88
2728	85
2729	84
2730	74
2731	69
2732	66
2733	82
2734	89
2735	79
2736	78
2737	85
2738	72
2739	103
2740	79
2741	72
2742	77
2743	80
2744	94
2745	88
2746	79
2747	89
2748	84
2749	81
2750	87
2751	61
2752	86
2753	72
2754	71
2755	81
2756	69
2757	84
2758	76
2759	83
2760	80
2761	97
2762	88
2763	77
2764	85
2765	62
2766	90
2767	87
2768	92
2769	77
2770	98
2771	82
2772	70
2773	78
2774	102
2775	79
2776	89
2777	77
2778	75
2779	78
2780	72
2781	80
2782	65
2783	93
2784	74
2785	103
2786	83
2787	79
2788	91
2789	89
2790	76
2791	74
2792	87
2793	87
2794	95
2795	99
2796	70
2797	77
2798	89
2799	86
2800	86
2801	80
2802	91
2803	76
2804	95
2805	85
2806	92
2807	76
2808	86
2809	81
2810	72
2811	79
2812	80
2813	78
2814	83
2815	80
2816	88
2817	89
2818	67
2819	78
2820	88
2821	95
2822	69
2823	79
2824	97
2825	107
2826	88
2827	86
2828	81
2829	82
2830	100
2831	81
2832	73
2833	89
2834	82
2835	74
2836	80
2837	84
2838	91
2839	97
2840	81
2841	75
2842	103
2843	83
2844	74
2845	98
2846	73
2847	97
2848	81
2849	83
2850	74
2851	79
2852	74
2853	99
2854	88
2855	91
2856	84
2857	92
2858	87
2859	106
2860	83
2861	105
2862	101
2863	99
2864	100
2865	94
2866	101
2867	84
2868	85
2869	68
2870	70
2871	70
2872	86
2873	86
2874	84
2875	86
2876	77
2877	87
2878	90
2879	108
2880	82
2881	86
2882	83
2883	83
2884	87
2885	98
2886	98
2887	78
2888	80
2889	85
2890	74
2891	88
2892	73
2893	103
2894	102
2895	82
2896	81
2897	99
2898	95
2899	95
2900	100
2901	96
2902	109
2903	100
2904	104
2905	93
2906	85
2907	84
2908	94
2909	91
2910	85
2911	79
2912	88
2913	78
2914	82
2915	86
2916	81
2917	78
2918	69
2919	83
2920	93
2921	89
2922	85
2923	85
2924	87
2925	86
2926	86
2927	86
2928	88
2929	92
2930	84
2931	84
2932	69
2933	80
2934	87
2935	95
2936	111
2937	99
2938	102
2939	99
2940	100
2941	81
2942	79
2943	88
2944	89
2945	96
2946	108
2947	100
2948	88
2949	92
2950	104
2951	81
2952	81
2953	92
2954	78
2955	88
2956	97
2957	95
2958	91
2959	99
2960	97
2961	89
2962	89
2963	86
2964	89
2965	119
2966	189
2967	243
2968	375
2969	455
2970	504
2971	444
2972	321
2973	211
2974	155
2975	84
2976	106
2977	77
2978	100
2979	98
2980	84
2981	78
2982	85
2983	99
2984	99
2985	84
2986	87
2987	83
2988	89
2989	79
2990	83
2991	78
2992	92
2993	91
2994	98
2995	80
2996	96
2997	88
2998	81
2999	98
3000	60
3001	104
3002	97
3003	110
3004	94
3005	76
3006	85
3007	88
3008	105
3009	71
3010	91
3011	86
3012	106
3013	84
3014	98
3015	92
3016	90
3017	94
3018	92
3019	87
3020	105
3021	85
3022	88
3023	82
3024	89
3025	97
3026	67
3027	115
3028	84
3029	93
3030	83
3031	86
3032	76
3033	79
3034	103
3035	89
3036	94
3037	96
3038	98
3039	92
3040	101
3041	100
3042	97
3043	92
3044	80
3045	94
3046	97
3047	89
3048	83
3049	78
3050	96
3051	78
3052	93
3053	78
3054	93
3055	109
3056	95
3057	104
3058	119
3059	127
3060	142
3061	147
3062	105
3063	90
3064	104
3065	100
3066	105
3067	90
3068	89
3069	79
3070	85
3071	87
3072	90
3073	92
3074	80
3075	94
3076	90
3077	89
3078	100
3079	83
3080	96
3081	108
3082	115
3083	107
3084	117
3085	111
3086	100
3087	107
3088	112
3089	88
3090	92
3091	88
3092	85
3093	81
3094	110
3095	90
3096	94
3097	88
3098	92
3099	93
3100	88
3101	106
3102	101
3103	92
3104	102
3105	99
3106	91
3107	106
3108	101
3109	99
3110	92
3111	99
3112	86
3113	101
3114	83
3115	106
3116	111
3117	98
3118	86
3119	93
3120	94
3121	95
3122	102
3123	95
3124	95
3125	87
3126	96
3127	89
3128	99
3129	104
3130	111
3131	108
3132	97
3133	100
3134	95
3135	85
3136	109
3137	99
3138	93
3139	86
3140	92
3141	114
3142	96
3143	79
3144	96
3145	90
3146	108
3147	104
3148	110
3149	95
3150	101
3151	96
3152	121
3153	97
3154	101
3155	95
3156	78
3157	114
3158	92
3159	101
3160	93
3161	88
3162	88
3163	94
3164	105
3165	98
3166	101
3167	88
3168	116
3169	102
3170	97
3171	85
3172	93
3173	94
3174	103
3175	100
3176	89
3177	111
3178	83
3179	93
3180	123
3181	105
3182	112
3183	88
3184	114
3185	112
3186	92
3187	104
3188	91
3189	97
3190	124
3191	109
3192	96
3193	92
3194	104
3195	113
3196	129
3197	106
3198	122
3199	117
3200	85
3201	77
3202	111
3203	94
3204	94
3205	96
3206	102
3207	110
3208	97
3209	107
3210	103
3211	106
3212	105
3213	110
3214	100
3215	116
3216	115
3217	103
3218	108
3219	109
3220	113
3221	99
3222	126
3223	92
3224	95
3225	91
3226	107
3227	126
3228	102
3229	104
3230	122
3231	118
3232	121
3233	120
3234	105
3235	119
3236	115
3237	122
3238	114
3239	138
3240	102
3241	112
3242	96
3243	102
3244	100
3245	101
3246	86
3247	109
3248	126
3249	116
3250	120
3251	92
3252	95
3253	103
3254	109
3255	102
3256	108
3257	104
3258	103
3259	123
3260	113
3261	100
3262	94
3263	103
3264	119
3265	102
3266	117
3267	123
3268	92
3269	101
3270	121
3271	133
3272	130
3273	187
3274	211
3275	255
3276	242
3277	210
3278	194
3279	153
3280	109
3281	117
3282	109
3283	128
3284	91
3285	101
3286	100
3287	108
3288	98
3289	98
3290	102
3291	96
3292	91
3293	101
3294	103
3295	94
3296	99
3297	95
3298	109
3299	92
3300	98
3301	93
3302	92
3303	88
3304	85
3305	74
3306	88
3307	94
3308	85
3309	73
3310	80
3311	80
3312	99
3313	85
3314	93
3315	78
3316	86
3317	83
3318	70
3319	89
3320	79
3321	81
3322	99
3323	82
3324	77
3325	82
3326	70
3327	68
3328	90
3329	69
3330	57
3331	70
3332	86
3333	66
3334	90
3335	106
3336	85
3337	68
3338	66
3339	86
3340	87
3341	64
3342	65
3343	65
3344	84
3345	79
3346	76
3347	78
3348	71
3349	81
3350	79
3351	73
3352	76
3353	68
3354	87
3355	84
3356	65
3357	70
3358	73
3359	74
3360	64
3361	85
3362	77
3363	70
3364	71
3365	58
3366	72
3367	79
3368	81
3369	92
3370	90
3371	81
3372	79
3373	78
3374	60
3375	80
3376	61
3377	75
3378	75
3379	80
3380	71
3381	66
3382	82
3383	85
3384	79
3385	110
3386	99
3387	84
3388	107
3389	90
3390	69
3391	70
3392	67
3393	62
3394	62
3395	62
3396	65
3397	73
3398	61
3399	74
3400	73
3401	79
3402	61
3403	69
3404	63
3405	52
3406	61
3407	67
3408	53
3409	61
3410	65
3411	65
3412	69
3413	66
3414	60
3415	69
3416	63
3417	69
3418	52
3419	62
3420	60
3421	71
3422	66
3423	57
3424	71
3425	72
3426	48
3427	52
3428	55
3429	84
3430	53
3431	63
3432	54
3433	62
3434	63
3435	52
3436	46
3437	45
3438	60
3439	69
3440	55
3441	49
3442	75
3443	53
3444	53
3445	70
3446	53
3447	57
3448	73
3449	57
3450	67
3451	58
3452	69
3453	61
3454	56
3455	64
3456	59
3457	57
3458	51
3459	55
3460	52
3461	60
3462	67
3463	53
3464	60
3465	56
3466	45
3467	40
3468	49
3469	51
3470	55
3471	48
3472	62
3473	53
3474	53
3475	61
3476	67
3477	56
3478	74
3479	42
3480	70
3481	55
3482	52
3483	44
3484	55
3485	64
3486	59
3487	48
3488	57
3489	51
3490	48
3491	51
3492	54
3493	54
3494	43
3495	50
3496	51
3497	62
3498	53
3499	42
3500	36
3501	47
3502	49
3503	48
3504	47
3505	61
3506	53
3507	42
3508	47
3509	50
3510	60
3511	47
3512	54
3513	34
3514	68
3515	54
3516	46
3517	53
3518	57
3519	53
3520	45
3521	46
3522	40
3523	43
3524	51
3525	49
3526	50
3527	44
3528	44
3529	46
3530	44
3531	47
3532	46
3533	43
3534	42
3535	45
3536	54
3537	42
3538	39
3539	59
3540	28
3541	42
3542	49
3543	47
3544	47
3545	36
3546	38
3547	31
3548	41
3549	46
3550	35
3551	38
3552	47
3553	38
3554	32
3555	45
3556	32
3557	42
3558	46
3559	44
3560	36
3561	47
3562	38
3563	35
3564	46
3565	32
3566	45
3567	37
3568	36
3569	39
3570	29
3571	46
3572	45
3573	50
3574	37
3575	39
3576	35
3577	35
3578	34
3579	42
3580	33
3581	42
3582	34
3583	49
3584	40
3585	41
3586	43
3587	41
3588	38
3589	43
3590	31
3591	35
3592	28
3593	39
3594	23
3595	45
3596	26
3597	34
3598	33
3599	37
3600	27
3601	37
3602	33
3603	43
3604	39
3605	36
3606	37
3607	27
3608	26
3609	25
3610	32
3611	34
3612	43
3613	30
3614	34
3615	26
3616	45
3617	35
3618	44
3619	40
3620	44
3621	34
3622	22
3623	29
3624	34
3625	33
3626	30
3627	29
3628	28
3629	29
3630	34
3631	36
3632	41
3633	46
3634	70
3635	101
3636	109
3637	121
3638	105
3639	95
3640	77
3641	52
3642	37
3643	28
3644	42
3645	31
3646	32
3647	26
3648	29
3649	33
3650	25
3651	41
3652	29
3653	42
3654	40
3655	39
3656	41
3657	54
3658	44
3659	39
3660	33
3661	32
3662	30
3663	25
3664	31
3665	28
3666	36
3667	34
3668	35
3669	21
3670	26
3671	34
3672	43
3673	28
3674	44
3675	24
3676	34
3677	25
3678	28
3679	33
3680	30
3681	36
3682	28
3683	22
3684	29
3685	28
3686	28
3687	35
3688	34
3689	31
3690	36
3691	26
3692	34
3693	43
3694	33
3695	34
3696	58
3697	53
3698	45
3699	62
3700	47
3701	36
3702	40
3703	50
3704	36
3705	31
3706	40
3707	20
3708	36
3709	31
3710	37
3711	35
3712	38
3713	67
3714	76
3715	77
3716	93
3717	79
3718	53
3719	44
3720	26
3721	24
3722	28
3723	29
3724	40
3725	34
3726	31
3727	37
3728	30
3729	37
3730	26
3731	27
3732	27
3733	39
3734	29
3735	35
3736	27
3737	31
3738	24
3739	39
3740	26
3741	38
3742	31
3743	39
3744	24
3745	29
3746	33
3747	28
3748	17
3749	27
3750	36
3751	28
3752	37
3753	32
3754	28
3755	29
3756	23
3757	28
3758	29
3759	40
3760	26
3761	34
3762	37
3763	31
3764	34
3765	27
3766	32
3767	30
3768	29
3769	40
3770	30
3771	31
3772	32
3773	33
3774	25
3775	37
3776	28
3777	31
3778	26
3779	33
3780	20
3781	28
3782	30
3783	21
3784	27
3785	41
3786	31
3787	26
3788	32
3789	27
3790	24
3791	25
3792	23
3793	27
3794	32
3795	35
3796	28
3797	23
3798	33
3799	30
3800	20
3801	28
3802	27
3803	28
3804	33
3805	18
3806	31
3807	27
3808	27
3809	35
3810	27
3811	32
3812	29
3813	25
3814	24
3815	26
3816	25
3817	29
3818	32
3819	34
3820	24
3821	27
3822	29
3823	22
3824	26
3825	36
3826	28
3827	28
3828	30
3829	27
3830	29
3831	32
3832	30
3833	28
3834	25
3835	31
3836	34
3837	36
3838	31
3839	18
3840	30
3841	36
3842	26
3843	42
3844	48
3845	44
3846	118
3847	320
3848	847
3849	1869
3850	3347
3851	4699
3852	5460
3853	5246
3854	4222
3855	2774
3856	1352
3857	600
3858	185
3859	60
3860	26
3861	28
3862	19
3863	25
3864	20
3865	15
3866	19
3867	16
3868	18
3869	17
3870	25
3871	20
3872	26
3873	28
3874	18
3875	19
3876	21
3877	26
3878	23
3879	26
3880	20
3881	17
3882	22
3883	22
3884	24
3885	19
3886	27
3887	27
3888	20
3889	30
3890	24
3891	24
3892	29
3893	21
3894	25
3895	20
3896	11
3897	25
3898	24
3899	19
3900	14
3901	21
3902	25
3903	26
3904	18
3905	20
3906	16
3907	21
3908	23
3909	25
3910	27
3911	16
3912	28
3913	14
3914	20
3915	21
3916	23
3917	12
3918	18
3919	20
3920	25
3921	11
3922	16
3923	17
3924	24
3925	21
3926	35
3927	19
3928	16
3929	14
3930	14
3931	20
3932	20
3933	14
3934	21
3935	24
3936	23
3937	25
3938	18
3939	15
3940	29
3941	32
3942	51
3943	44
3944	41
3945	35
3946	28
3947	25
3948	20
3949	20
3950	18
3951	20
3952	16
3953	22
3954	19
3955	18
3956	33
3957	36
3958	36
3959	33
3960	16
3961	18
3962	22
3963	20
3964	12
3965	16
3966	23
3967	11
3968	19
3969	22
3970	16
3971	15
3972	15
3973	35
3974	19
3975	38
3976	57
3977	64
3978	74
3979	54
3980	52
3981	32
3982	20
3983	24
3984	24
3985	21
3986	26
3987	29
3988	29
3989	20
3990	17
3991	26
3992	24
3993	25
3994	28
3995	27
3996	24
3997	16
3998	15
3999	30
4000	22
4001	25
4002	17
4003	21
4004	16
4005	19
4006	33
4007	24
4008	25
4009	15
4010	16
4011	11
4012	13
4013	18
4014	22
4015	20
4016	11
4017	15
4018	25
4019	29
4020	18
4021	19
4022	16
4023	20
4024	20
4025	17
4026	18
4027	17
4028	19
4029	18
4030	21
4031	16
4032	19
4033	20
4034	15
4035	15
4036	23
4037	26
4038	23
4039	10
4040	24
4041	17
4042	12
4043	16
4044	28
4045	7
4046	20
4047	10
4048	16
4049	18
4050	17
4051	29
4052	16
4053	30
4054	28
4055	25
4056	24
4057	17
4058	22
4059	20
4060	18
4061	13
4062	26
4063	19
4064	21
4065	21
4066	28
4067	31
4068	29
4069	16
4070	17
4071	28
4072	18
4073	13
4074	26
4075	18
4076	15
4077	16
4078	13
4079	21
4080	23
4081	19
4082	14
4083	16
4084	14
4085	13
4086	15
4087	15
4088	12
4089	7
4090	18
4091	17
4092	13
4093	11
4094	16
4095	21
4096	10
4097	15
4098	18
4099	18
4100	20
4101	31
4102	19
4103	15
4104	14
4105	22
4106	21
4107	24
4108	20
4109	25
4110	16
4111	20
4112	19
4113	18
4114	10
4115	14
4116	15
4117	22
4118	17
4119	16
4120	8
4121	20
4122	20
4123	24
4124	14
4125	16
4126	10
4127	13
4128	17
4129	15
4130	22
4131	9
4132	17
4133	14
4134	16
4135	21
4136	18
4137	17
4138	12
4139	13
4140	14
4141	10
4142	22
4143	18
4144	13
4145	20
4146	16
4147	15
4148	16
4149	10
4150	10
4151	16
4152	13
4153	15
4154	11
4155	5
4156	16
4157	21
4158	16
4159	19
4160	20
4161	27
4162	31
4163	27
4164	28
4165	20
4166	30
4167	30
4168	33
4169	29
4170	37
4171	29
4172	13
4173	20
4174	17
4175	21
4176	23
4177	21
4178	29
4179	44
4180	61
4181	101
4182	95
4183	87
4184	74
4185	59
4186	48
4187	21
4188	17
4189	26
4190	33
4191	43
4192	35
4193	62
4194	56
4195	57
4196	47
4197	30
4198	23
4199	19
4200	23
4201	31
4202	25
4203	15
4204	14
4205	18
4206	22
4207	15
4208	22
4209	24
4210	27
4211	35
4212	23
4213	19
4214	18
4215	20
4216	19
4217	12
4218	23
4219	20
4220	16
4221	12
4222	17
4223	14
4224	18
4225	19
4226	25
4227	14
4228	24
4229	16
4230	20
4231	17
4232	21
4233	24
4234	17
4235	18
4236	17
4237	18
4238	18
4239	14
4240	10
4241	15
4242	15
4243	15
4244	17
4245	18
4246	13
4247	19
4248	18
4249	15
4250	18
4251	17
4252	12
4253	14
4254	21
4255	14
4256	13
4257	20
4258	19
4259	9
4260	15
4261	21
4262	23
4263	24
4264	30
4265	46
4266	44
4267	66
4268	40
4269	32
4270	26
4271	23
4272	16
4273	15
4274	11
4275	17
4276	24
4277	29
4278	25
4279	17
4280	23
4281	19
4282	21
4283	15
4284	11
4285	20
4286	20
4287	17
4288	17
4289	26
4290	39
4291	53
4292	50
4293	53
4294	48
4295	27
4296	30
4297	17
4298	17
4299	15
4300	11
4301	21
4302	9
4303	17
4304	11
4305	21
4306	13
4307	15
4308	19
4309	12
4310	18
4311	26
4312	32
4313	18
4314	22
4315	16
4316	20
4317	11
4318	22
4319	12
4320	14
4321	10
4322	14
4323	14
4324	17
4325	15
4326	15
4327	15
4328	13
4329	8
4330	8
4331	14
4332	12
4333	19
4334	15
4335	11
4336	15
4337	12
4338	14
4339	15
4340	12
4341	18
4342	13
4343	11
4344	9
4345	8
4346	17
4347	9
4348	16
4349	10
4350	11
4351	13
4352	12
4353	15
4354	12
4355	15
4356	6
4357	11
4358	15
4359	13
4360	23
4361	20
4362	13
4363	14
4364	18
4365	11
4366	9
4367	22
4368	20
4369	20
4370	24
4371	26
4372	44
4373	32
4374	33
4375	13
4376	18
4377	14
4378	16
4379	9
4380	9
4381	18
4382	12
4383	22
4384	16
4385	20
4386	25
4387	15
4388	17
4389	8
4390	13
4391	9
4392	7
4393	13
4394	11
4395	15
4396	15
4397	20
4398	15
4399	16
4400	14
4401	13
4402	8
4403	13
4404	9
4405	8
4406	18
4407	18
4408	16
4409	16
4410	11
4411	19
4412	6
4413	17
4414	13
4415	7
4416	11
4417	16
4418	15
4419	8
4420	11
4421	14
4422	14
4423	11
4424	18
4425	9
4426	14
4427	15
4428	20
4429	21
4430	16
4431	15
4432	18
4433	26
4434	14
4435	13
4436	16
4437	18
4438	18
4439	17
4440	13
4441	6
4442	19
4443	9
4444	9
4445	16
4446	20
4447	12
4448	11
4449	18
4450	12
4451	14
4452	11
4453	20
4454	15
4455	11
4456	14
4457	12
4458	9
4459	9
4460	11
4461	11
4462	9
4463	13
4464	16
4465	21
4466	15
4467	11
4468	7
4469	12
4470	6
4471	12
4472	18
4473	15
4474	16
4475	18
4476	7
4477	17
4478	16
4479	20
4480	20
4481	13
4482	9
4483	13
4484	15
4485	12
4486	10
4487	9
4488	5
4489	9
4490	13
4491	12
4492	10
4493	16
4494	17
4495	9
4496	7
4497	11
4498	9
4499	10
4500	16
4501	14
4502	20
4503	10
4504	14
4505	15
4506	13
4507	17
4508	12
4509	11
4510	17
4511	17
4512	19
4513	9
4514	18
4515	6
4516	14
4517	13
4518	14
4519	11
4520	10
4521	16
4522	10
4523	9
4524	11
4525	16
4526	6
4527	10
4528	12
4529	14
4530	14
4531	15
4532	13
4533	12
4534	15
4535	14
4536	14
4537	10
4538	5
4539	18
4540	16
4541	10
4542	12
4543	17
4544	17
4545	24
4546	33
4547	57
4548	71
4549	83
4550	69
4551	63
4552	39
4553	19
4554	18
4555	14
4556	15
4557	4
4558	15
4559	9
4560	16
4561	12
4562	13
4563	21
4564	5
4565	12
4566	9
4567	17
4568	12
4569	11
4570	18
4571	14
4572	14
4573	11
4574	12
4575	11
4576	7
4577	7
4578	7
4579	18
4580	12
4581	13
4582	15
4583	12
4584	12
4585	14
4586	9
4587	18
4588	15
4589	15
4590	12
4591	17
4592	13
4593	9
4594	11
4595	12
4596	13
4597	16
4598	10
4599	10
4600	12
4601	8
4602	11
4603	14
4604	13
4605	12
4606	16
4607	15
4608	14
4609	13
4610	20
4611	14
4612	10
4613	11
4614	11
4615	10
4616	9
4617	16
4618	15
4619	12
4620	13
4621	7
4622	9
4623	16
4624	11
4625	12
4626	15
4627	14
4628	10
4629	18
4630	11
4631	12
4632	10
4633	22
4634	42
4635	57
4636	110
4637	176
4638	271
4639	298
4640	311
4641	255
4642	164
4643	110
4644	58
4645	21
4646	14
4647	13
4648	10
4649	9
4650	16
4651	13
4652	14
4653	5
4654	14
4655	7
4656	13
4657	18
4658	16
4659	7
4660	12
4661	10
4662	6
4663	14
4664	12
4665	9
4666	13
4667	9
4668	15
4669	16
4670	9
4671	10
4672	13
4673	16
4674	19
4675	17
4676	12
4677	13
4678	17
4679	9
4680	14
4681	9
4682	10
4683	15
4684	18
4685	19
4686	8
4687	11
4688	13
4689	10
4690	12
4691	7
4692	16
4693	9
4694	17
4695	13
4696	19
4697	16
4698	14
4699	11
4700	11
4701	10
4702	10
4703	10
4704	9
4705	10
4706	12
4707	10
4708	11
4709	15
4710	13
4711	9
4712	13
4713	13
4714	14
4715	14
4716	10
4717	16
4718	16
4719	9
4720	11
4721	7
4722	9
4723	12
4724	7
4725	12
4726	9
4727	9
4728	6
4729	15
4730	12
4731	12
4732	8
4733	9
4734	9
4735	11
4736	10
4737	9
4738	4
4739	6
4740	6
4741	12
4742	14
4743	7
4744	18
4745	14
4746	21
4747	13
4748	16
4749	11
4750	8
4751	10
4752	16
4753	10
4754	10
4755	15
4756	8
4757	10
4758	12
4759	12
4760	9
4761	14
4762	11
4763	15
4764	14
4765	9
4766	10
4767	14
4768	15
4769	9
4770	9
4771	9
4772	16
4773	12
4774	9
4775	10
4776	7
4777	16
4778	7
4779	14
4780	9
4781	20
4782	17
4783	16
4784	9
4785	7
4786	13
4787	11
4788	16
4789	14
4790	9
4791	12
4792	10
4793	10
4794	11
4795	7
4796	8
4797	8
4798	9
4799	16
4800	18
4801	12
4802	18
4803	5
4804	7
4805	10
4806	6
4807	6
4808	11
4809	10
4810	11
4811	10
4812	9
4813	11
4814	13
4815	11
4816	7
4817	8
4818	12
4819	13
4820	14
4821	15
4822	6
4823	11
4824	14
4825	14
4826	16
4827	14
4828	19
4829	16
4830	21
4831	16
4832	19
4833	12
4834	13
4835	13
4836	11
4837	9
4838	8
4839	11
4840	6
4841	12
4842	11
4843	24
4844	16
4845	10
4846	7
4847	6
4848	15
4849	14
4850	23
4851	21
4852	40
4853	49
4854	61
4855	47
4856	40
4857	37
4858	31
4859	14
4860	15
4861	12
4862	19
4863	6
4864	11
4865	8
4866	15
4867	12
4868	9
4869	11
4870	14
4871	11
4872	13
4873	11
4874	15
4875	18
4876	9
4877	13
4878	13
4879	11
4880	15
4881	19
4882	20
4883	13
4884	11
4885	11
4886	11
4887	11
4888	12
4889	12
4890	17
4891	15
4892	9
4893	12
4894	7
4895	10
4896	16
4897	10
4898	8
4899	10
4900	9
4901	8
4902	12
4903	17
4904	12
4905	16
4906	4
4907	10
4908	12
4909	11
4910	14
4911	15
4912	15
4913	15
4914	14
4915	6
4916	14
4917	13
4918	14
4919	19
4920	15
4921	16
4922	19
4923	20
4924	13
4925	12
4926	7
4927	18
4928	12
4929	12
4930	14
4931	12
4932	12
4933	11
4934	13
4935	13
4936	7
4937	10
4938	14
4939	10
4940	17
4941	14
4942	15
4943	12
4944	15
4945	8
4946	10
4947	13
4948	12
4949	10
4950	14
4951	7
4952	17
4953	9
4954	8
4955	8
4956	15
4957	8
4958	10
4959	5
4960	9
4961	17
4962	14
4963	11
4964	11
4965	13
4966	16
4967	15
4968	14
4969	11
4970	14
4971	9
4972	15
4973	10
4974	6
4975	14
4976	14
4977	14
4978	15
4979	22
4980	9
4981	22
4982	9
4983	17
4984	14
4985	12
4986	13
4987	16
4988	10
4989	7
4990	12
4991	7
4992	12
4993	9
4994	11
4995	15
4996	13
4997	7
4998	12
4999	10
5000	17
5001	15
5002	6
5003	11
5004	8
5005	16
5006	13
5007	16
5008	11
5009	9
5010	9
5011	14
5012	12
5013	13
5014	12
5015	18
5016	12
5017	14
5018	9
5019	12
5020	12
5021	11
5022	8
5023	6
5024	13
5025	18
5026	10
5027	14
5028	18
5029	18
5030	9
5031	13
5032	8
5033	19
5034	7
5035	14
5036	13
5037	8
5038	15
5039	14
5040	14
5041	7
5042	14
5043	13
5044	21
5045	10
5046	13
5047	7
5048	9
5049	11
5050	7
5051	21
5052	13
5053	14
5054	10
5055	12
5056	13
5057	10
5058	17
5059	13
5060	9
5061	17
5062	8
5063	15
5064	14
5065	12
5066	15
5067	16
5068	11
5069	15
5070	12
5071	16
5072	9
5073	11
5074	10
5075	9
5076	8
5077	11
5078	20
5079	11
5080	11
5081	9
5082	14
5083	10
5084	14
5085	11
5086	20
5087	9
5088	7
5089	11
5090	10
5091	13
5092	8
5093	12
5094	11
5095	15
5096	16
5097	11
5098	13
5099	11
5100	18
5101	8
5102	9
5103	14
5104	8
5105	9
5106	10
5107	8
5108	14
5109	16
5110	16
5111	14
5112	9
5113	11
5114	8
5115	8
5116	15
5117	8
5118	12
5119	7
5120	12
5121	11
5122	15
5123	16
5124	13
5125	10
5126	11
5127	17
5128	15
5129	14
5130	9
5131	11
5132	14
5133	4
5134	10
5135	7
5136	10
5137	11
5138	13
5139	11
5140	12
5141	17
5142	7
5143	14
5144	11
5145	11
5146	13
5147	10
5148	16
5149	9
5150	11
5151	9
5152	12
5153	8
5154	9
5155	12
5156	7
5157	9
5158	16
5159	8
5160	13
5161	11
5162	14
5163	14
5164	13
5165	11
5166	12
5167	10
5168	10
5169	8
5170	13
5171	13
5172	14
5173	13
5174	11
5175	12
5176	13
5177	6
5178	17
5179	16
5180	15
5181	13
5182	12
5183	15
5184	13
5185	7
5186	13
5187	9
5188	13
5189	14
5190	13
5191	14
5192	12
5193	10
5194	13
5195	8
5196	10
5197	10
5198	12
5199	16
5200	9
5201	14
5202	13
5203	8
5204	13
5205	7
5206	7
5207	11
5208	13
5209	13
5210	16
5211	8
5212	10
5213	5
5214	9
5215	15
5216	15
5217	13
5218	9
5219	9
5220	8
5221	14
5222	11
5223	11
5224	9
5225	8
5226	13
5227	8
5228	5
5229	17
5230	6
5231	9
5232	14
5233	8
5234	6
5235	6
5236	11
5237	9
5238	14
5239	6
5240	13
5241	9
5242	7
5243	9
5244	7
5245	14
5246	14
5247	9
5248	10
5249	7
5250	14
5251	13
5252	12
5253	18
5254	9
5255	13
5256	12
5257	13
5258	11
5259	12
5260	9
5261	11
5262	6
5263	11
5264	14
5265	11
5266	9
5267	10
5268	14
5269	11
5270	11
5271	11
5272	8
5273	8
5274	8
5275	9
5276	16
5277	17
5278	14
5279	8
5280	15
5281	14
5282	7
5283	16
5284	10
5285	14
5286	11
5287	12
5288	16
5289	4
5290	16
5291	7
5292	14
5293	12
5294	16
5295	21
5296	8
5297	10
5298	6
5299	12
5300	9
5301	18
5302	11
5303	8
5304	3
5305	11
5306	13
5307	8
5308	10
5309	4
5310	13
5311	5
5312	16
5313	14
5314	11
5315	11
5316	17
5317	8
5318	5
5319	10
5320	5
5321	13
5322	9
5323	11
5324	12
5325	13
5326	11
5327	18
5328	10
5329	9
5330	6
5331	6
5332	12
5333	10
5334	6
5335	15
5336	17
5337	15
5338	11
5339	12
5340	5
5341	3
5342	7
5343	13
5344	11
5345	10
5346	8
5347	11
5348	4
5349	10
5350	9
5351	10
5352	11
5353	6
5354	6
5355	13
5356	6
5357	9
5358	8
5359	7
5360	8
5361	3
5362	12
5363	7
5364	3
5365	10
5366	10
5367	12
5368	8
5369	4
5370	9
5371	9
5372	8
5373	14
5374	12
5375	9
5376	11
5377	10
5378	11
5379	8
5380	10
5381	14
5382	5
5383	13
5384	13
5385	16
5386	10
5387	17
5388	17
5389	12
5390	7
5391	6
5392	12
5393	11
5394	12
5395	10
5396	8
5397	15
5398	13
5399	10
5400	11
5401	6
5402	12
5403	14
5404	11
5405	6
5406	4
5407	8
5408	14
5409	8
5410	15
5411	9
5412	11
5413	7
5414	8
5415	9
5416	3
5417	8
5418	7
5419	12
5420	10
5421	14
5422	9
5423	11
5424	11
5425	14
5426	8
5427	12
5428	7
5429	15
5430	16
5431	8
5432	8
5433	15
5434	16
5435	15
5436	12
5437	11
5438	9
5439	8
5440	14
5441	10
5442	6
5443	9
5444	11
5445	10
5446	6
5447	14
5448	9
5449	8
5450	9
5451	11
5452	16
5453	7
5454	6
5455	5
5456	7
5457	9
5458	11
5459	12
5460	5
5461	14
5462	3
5463	11
5464	6
5465	8
5466	14
5467	16
5468	9
5469	5
5470	8
5471	11
5472	8
5473	8
5474	9
5475	10
5476	10
5477	10
5478	8
5479	7
5480	10
5481	9
5482	10
5483	6
5484	9
5485	6
5486	9
5487	9
5488	12
5489	18
5490	11
5491	14
5492	9
5493	9
5494	7
5495	9
5496	9
5497	9
5498	14
5499	9
5500	12
5501	10
5502	7
5503	11
5504	13
5505	12
5506	11
5507	16
5508	11
5509	15
5510	5
5511	17
5512	24
5513	31
5514	38
5515	44
5516	56
5517	60
5518	71
5519	72
5520	48
5521	44
5522	44
5523	36
5524	22
5525	15
5526	9
5527	14
5528	6
5529	18
5530	8
5531	20
5532	11
5533	11
5534	8
5535	8
5536	15
5537	10
5538	17
5539	11
5540	9
5541	8
5542	12
5543	12
5544	14
5545	6
5546	14
5547	11
5548	12
5549	15
5550	12
5551	10
5552	10
5553	22
5554	13
5555	20
5556	25
5557	27
5558	18
5559	24
5560	19
5561	17
5562	18
5563	7
5564	8
5565	13
5566	13
5567	14
5568	11
5569	12
5570	8
5571	6
5572	8
5573	9
5574	9
5575	10
5576	14
5577	8
5578	9
5579	5
5580	10
5581	6
5582	9
5583	6
5584	11
5585	12
5586	14
5587	8
5588	8
5589	5
5590	12
5591	4
5592	4
5593	8
5594	10
5595	9
5596	10
5597	9
5598	8
5599	6
5600	5
5601	7
5602	7
5603	11
5604	9
5605	15
5606	4
5607	14
5608	11
5609	13
5610	13
5611	12
5612	15
5613	7
5614	12
5615	6
5616	10
5617	13
5618	10
5619	13
5620	11
5621	12
5622	7
5623	7
5624	14
5625	3
5626	7
5627	12
5628	11
5629	11
5630	13
5631	9
5632	11
5633	11
5634	5
5635	11
5636	13
5637	6
5638	10
5639	6
5640	10
5641	13
5642	12
5643	12
5644	11
5645	7
5646	6
5647	14
5648	15
5649	12
5650	10
5651	7
5652	10
5653	6
5654	9
5655	6
5656	14
5657	8
5658	8
5659	14
5660	10
5661	5
5662	10
5663	5
5664	11
5665	12
5666	12
5667	10
5668	14
5669	13
5670	16
5671	13
5672	9
5673	11
5674	10
5675	11
5676	14
5677	15
5678	9
5679	10
5680	11
5681	11
5682	8
5683	14
5684	9
5685	10
5686	11
5687	11
5688	11
5689	8
5690	16
5691	9
5692	6
5693	8
5694	10
5695	8
5696	15
5697	8
5698	12
5699	9
5700	7
5701	12
5702	9
5703	13
5704	7
5705	15
5706	10
5707	8
5708	12
5709	16
5710	14
5711	9
5712	8
5713	10
5714	14
5715	10
5716	9
5717	9
5718	10
5719	14
5720	10
5721	5
5722	14
5723	10
5724	6
5725	11
5726	8
5727	9
5728	12
5729	6
5730	14
5731	13
5732	9
5733	16
5734	11
5735	9
5736	11
5737	8
5738	11
5739	16
5740	12
5741	15
5742	13
5743	10
5744	12
5745	19
5746	12
5747	22
5748	10
5749	14
5750	11
5751	14
5752	10
5753	11
5754	12
5755	10
5756	10
5757	12
5758	5
5759	11
5760	12
5761	11
5762	9
5763	15
5764	9
5765	8
5766	7
5767	9
5768	3
5769	12
5770	12
5771	14
5772	17
5773	16
5774	25
5775	29
5776	38
5777	64
5778	77
5779	81
5780	70
5781	59
5782	39
5783	33
5784	14
5785	19
5786	7
5787	9
5788	10
5789	18
5790	13
5791	15
5792	13
5793	12
5794	13
5795	11
5796	5
5797	9
5798	8
5799	7
5800	13
5801	8
5802	9
5803	10
5804	8
5805	14
5806	10
5807	13
5808	9
5809	7
5810	14
5811	7
5812	9
5813	7
5814	14
5815	11
5816	12
5817	9
5818	11
5819	13
5820	8
5821	11
5822	7
5823	6
5824	11
5825	12
5826	8
5827	14
5828	9
5829	7
5830	12
5831	10
5832	9
5833	9
5834	12
5835	16
5836	10
5837	10
5838	11
5839	8
5840	11
5841	8
5842	11
5843	11
5844	8
5845	7
5846	11
5847	13
5848	8
5849	15
5850	8
5851	13
5852	13
5853	8
5854	6
5855	16
5856	9
5857	12
5858	14
5859	11
5860	10
5861	11
5862	8
5863	18
5864	15
5865	12
5866	15
5867	11
5868	11
5869	10
5870	13
5871	8
5872	12
5873	9
5874	6
5875	9
5876	11
5877	11
5878	10
5879	9
5880	10
5881	15
5882	7
5883	6
5884	7
5885	12
5886	11
5887	12
5888	6
5889	10
5890	9
5891	15
5892	10
5893	8
5894	9
5895	10
5896	13
5897	11
5898	9
5899	11
5900	6
5901	11
5902	10
5903	12
5904	6
5905	19
5906	11
5907	11
5908	19
5909	9
5910	10
5911	13
5912	6
5913	17
5914	11
5915	13
5916	15
5917	11
5918	7
5919	10
5920	16
5921	12
5922	11
5923	9
5924	10
5925	12
5926	4
5927	14
5928	14
5929	11
5930	10
5931	7
5932	8
5933	9
5934	14
5935	7
5936	8
5937	7
5938	11
5939	22
5940	18
5941	5
5942	7
5943	11
5944	12
5945	7
5946	14
5947	13
5948	7
5949	9
5950	10
5951	9
5952	10
5953	14
5954	7
5955	9
5956	8
5957	15
5958	10
5959	13
5960	8
5961	16
5962	11
5963	13
5964	14
5965	11
5966	8
5967	9
5968	10
5969	16
5970	6
5971	10
5972	11
5973	22
5974	16
5975	14
5976	12
5977	7
5978	13
5979	11
5980	9
5981	8
5982	8
5983	13
5984	13
5985	5
5986	10
5987	13
5988	14
5989	11
5990	15
5991	6
5992	12
5993	16
5994	19
5995	17
5996	15
5997	5
5998	10
5999	13
6000	5
6001	15
6002	14
6003	8
6004	15
6005	13
6006	16
6007	14
6008	17
6009	15
6010	17
6011	14
6012	19
6013	17
6014	20
6015	9
6016	16
6017	10
6018	17
6019	6
6020	12
6021	13
6022	8
6023	14
6024	13
6025	8
6026	8
6027	7
6028	12
6029	9
6030	10
6031	9
6032	10
6033	10
6034	13
6035	14
6036	14
6037	12
6038	9
6039	8
6040	13
6041	12
6042	15
6043	17
6044	12
6045	8
6046	12
6047	14
6048	14
6049	14
6050	8
6051	16
6052	14
6053	8
6054	11
6055	11
6056	9
6057	8
6058	20
6059	9
6060	15
6061	14
6062	9
6063	10
6064	13
6065	8
6066	11
6067	8
6068	10
6069	8
6070	17
6071	15
6072	12
6073	14
6074	12
6075	7
6076	11
6077	8
6078	8
6079	7
6080	12
6081	16
6082	11
6083	10
6084	18
6085	3
6086	16
6087	12
6088	12
6089	8
6090	13
6091	10
6092	11
6093	8
6094	10
6095	14
6096	8
6097	9
6098	9
6099	10
6100	11
6101	13
6102	9
6103	9
6104	12
6105	11
6106	24
6107	12
6108	7
6109	18
6110	16
6111	9
6112	8
6113	14
6114	15
6115	17
6116	9
6117	12
6118	10
6119	7
6120	22
6121	8
6122	7
6123	18
6124	10
6125	16
6126	13
6127	11
6128	18
6129	11
6130	10
6131	21
6132	8
6133	11
6134	12
6135	18
6136	15
6137	8
6138	4
6139	12
6140	11
6141	8
6142	12
6143	12
6144	8
6145	10
6146	12
6147	22
6148	4
6149	7
6150	9
6151	11
6152	9
6153	9
6154	15
6155	17
6156	10
6157	8
6158	10
6159	9
6160	8
6161	11
6162	11
6163	13
6164	10
6165	8
6166	11
6167	13
6168	13
6169	11
6170	18
6171	11
6172	17
6173	7
6174	18
6175	18
6176	9
6177	10
6178	8
6179	18
6180	16
6181	12
6182	16
6183	13
6184	13
6185	12
6186	14
6187	14
6188	15
6189	10
6190	12
6191	18
6192	12
6193	16
6194	20
6195	8
6196	13
6197	8
6198	14
6199	18
6200	8
6201	8
6202	15
6203	12
6204	19
6205	12
6206	15
6207	10
6208	18
6209	8
6210	11
6211	11
6212	10
6213	10
6214	9
6215	14
6216	13
6217	12
6218	13
6219	15
6220	12
6221	13
6222	17
6223	8
6224	14
6225	10
6226	4
6227	13
6228	12
6229	12
6230	8
6231	11
6232	16
6233	13
6234	9
6235	17
6236	15
6237	10
6238	19
6239	15
6240	20
6241	10
6242	11
6243	7
6244	13
6245	11
6246	13
6247	10
6248	11
6249	8
6250	8
6251	16
6252	12
6253	12
6254	6
6255	9
6256	12
6257	10
6258	8
6259	12
6260	14
6261	10
6262	15
6263	11
6264	9
6265	8
6266	9
6267	6
6268	11
6269	9
6270	9
6271	11
6272	8
6273	11
6274	4
6275	13
6276	15
6277	11
6278	7
6279	9
6280	9
6281	15
6282	11
6283	9
6284	10
6285	8
6286	15
6287	5
6288	8
6289	5
6290	4
6291	12
6292	12
6293	12
6294	8
6295	10
6296	12
6297	9
6298	12
6299	10
6300	9
6301	11
6302	2
6303	14
6304	10
6305	8
6306	12
6307	9
6308	11
6309	11
6310	5
6311	10
6312	4
6313	10
6314	7
6315	5
6316	7
6317	10
6318	7
6319	10
6320	13
6321	9
6322	12
6323	12
6324	7
6325	6
6326	15
6327	8
6328	8
6329	7
6330	10
6331	10
6332	6
6333	8
6334	8
6335	15
6336	7
6337	5
6338	8
6339	12
6340	12
6341	3
6342	10
6343	6
6344	6
6345	8
6346	7
6347	15
6348	8
6349	12
6350	7
6351	7
6352	5
6353	6
6354	7
6355	11
6356	6
6357	7
6358	12
6359	5
6360	13
6361	11
6362	7
6363	18
6364	4
6365	4
6366	4
6367	11
6368	8
6369	7
6370	8
6371	8
6372	6
6373	7
6374	11
6375	11
6376	7
6377	7
6378	10
6379	5
6380	7
6381	11
6382	14
6383	8
6384	9
6385	9
6386	4
6387	5
6388	15
6389	8
6390	8
6391	7
6392	8
6393	7
6394	5
6395	6
6396	10
6397	6
6398	9
6399	14
6400	9
6401	14
6402	7
6403	8
6404	11
6405	9
6406	18
6407	15
6408	25
6409	28
6410	29
6411	29
6412	26
6413	23
6414	19
6415	22
6416	5
6417	6
6418	8
6419	7
6420	6
6421	6
6422	10
6423	7
6424	8
6425	1
6426	4
6427	5
6428	7
6429	9
6430	5
6431	9
6432	10
6433	9
6434	8
6435	7
6436	8
6437	6
6438	7
6439	9
6440	6
6441	6
6442	13
6443	4
6444	2
6445	5
6446	3
6447	7
6448	7
6449	7
6450	5
6451	5
6452	8
6453	3
6454	7
6455	9
6456	8
6457	10
6458	4
6459	5
6460	4
6461	8
6462	8
6463	7
6464	2
6465	5
6466	4
6467	7
6468	13
6469	4
6470	7
6471	3
6472	5
6473	9
6474	9
6475	8
6476	6
6477	8
6478	9
6479	4
6480	5
6481	6
6482	5
6483	10
6484	3
6485	5
6486	6
6487	9
6488	7
6489	5
6490	8
6491	8
6492	6
6493	6
6494	12
6495	11
6496	9
6497	5
6498	5
6499	6
6500	5
6501	12
6502	1
6503	8
6504	3
6505	10
6506	8
6507	5
6508	5
6509	4
6510	6
6511	2
6512	8
6513	4
6514	3
6515	2
6516	5
6517	2
6518	5
6519	5
6520	4
6521	4
6522	10
6523	5
6524	9
6525	9
6526	6
6527	6
6528	4
6529	1
6530	6
6531	4
6532	10
6533	2
6534	3
6535	2
6536	5
6537	4
6538	5
6539	5
6540	4
6541	2
6542	3
6543	9
6544	2
6545	5
6546	7
6547	6
6548	4
6549	4
6550	6
6551	4
6552	7
6553	1
6554	9
6555	5
6556	7
6557	3
6558	8
6559	2
6560	7
6561	5
6562	7
6563	7
6564	8
6565	9
6566	4
6567	6
6568	4
6569	5
6570	6
6571	6
6572	2
6573	5
6574	6
6575	5
6576	4
6577	3
6578	4
6579	2
6580	4
6581	7
6582	5
6583	4
6584	3
6585	5
6586	10
6587	6
6588	7
6589	3
6590	7
6591	5
6592	2
6593	2
6594	2
6595	4
6596	11
6597	4
6598	4
6599	5
6600	7
6601	10
6602	8
6603	3
6604	5
6605	0
6606	5
6607	8
6608	6
6609	5
6610	5
6611	5
6612	6
6613	2
6614	3
6615	4
6616	2
6617	1
6618	7
6619	6
6620	4
6621	3
6622	3
6623	2
6624	4
6625	2
6626	7
6627	2
6628	1
6629	3
6630	5
6631	2
6632	4
6633	4
6634	5
6635	3
6636	1
6637	6
6638	5
6639	4
6640	3
6641	4
6642	3
6643	3
6644	2
6645	7
6646	4
6647	4
6648	4
6649	5
6650	3
6651	5
6652	3
6653	5
6654	1
6655	6
6656	5
6657	5
6658	5
6659	7
6660	3
6661	3
6662	11
6663	3
6664	4
6665	6
6666	4
6667	4
6668	3
6669	3
6670	6
6671	4
6672	3
6673	5
6674	5
6675	4
6676	5
6677	3
6678	2
6679	2
6680	4
6681	3
6682	5
6683	4
6684	4
6685	4
6686	4
6687	5
6688	2
6689	5
6690	2
6691	1
6692	5
6693	2
6694	2
6695	4
6696	3
6697	4
6698	5
6699	5
6700	2
6701	1
6702	4
6703	4
6704	2
6705	2
6706	4
6707	3
6708	3
6709	2
6710	1
6711	2
6712	4
6713	4
6714	9
6715	3
6716	3
6717	3
6718	2
6719	4
6720	6
6721	5
6722	5
6723	6
6724	6
6725	3
6726	5
6727	5
6728	7
6729	2
6730	3
6731	1
6732	3
6733	3
6734	2
6735	5
6736	5
6737	3
6738	4
6739	8
6740	3
6741	3
6742	7
6743	1
6744	5
6745	8
6746	6
6747	3
6748	1
6749	4
6750	4
6751	8
6752	3
6753	5
6754	1
6755	3
6756	8
6757	3
6758	5
6759	6
6760	4
6761	4
6762	2
6763	4
6764	2
6765	2
6766	2
6767	5
6768	3
6769	1
6770	8
6771	8
6772	3
6773	4
6774	4
6775	4
6776	1
6777	4
6778	5
6779	2
6780	0
6781	3
6782	4
6783	4
6784	2
6785	5
6786	5
6787	0
6788	6
6789	3
6790	8
6791	5
6792	1
6793	8
6794	2
6795	4
6796	5
6797	5
6798	5
6799	4
6800	2
6801	4
6802	4
6803	4
6804	4
6805	1
6806	3
6807	3
6808	2
6809	1
6810	11
6811	2
6812	4
6813	8
6814	2
6815	11
6816	4
6817	2
6818	2
6819	8
6820	2
6821	5
6822	4
6823	5
6824	5
6825	3
6826	6
6827	7
6828	3
6829	1
6830	2
6831	6
6832	9
6833	3
6834	4
6835	10
6836	21
6837	39
6838	96
6839	176
6840	277
6841	382
6842	455
6843	520
6844	439
6845	417
6846	305
6847	190
6848	91
6849	51
6850	22
6851	13
6852	6
6853	6
6854	3
6855	3
6856	2
6857	3
6858	2
6859	1
6860	1
6861	1
6862	3
6863	4
6864	3
6865	3
6866	4
6867	1
6868	1
6869	5
6870	3
6871	3
6872	3
6873	3
6874	3
6875	5
6876	2
6877	5
6878	2
6879	2
6880	2
6881	1
6882	4
6883	4
6884	5
6885	6
6886	2
6887	3
6888	2
6889	2
6890	4
6891	2
6892	2
6893	2
6894	2
6895	5
6896	2
6897	1
6898	5
6899	1
6900	4
6901	2
6902	5
6903	2
6904	0
6905	2
6906	3
6907	3
6908	2
6909	2
6910	4
6911	0
6912	2
6913	2
6914	3
6915	0
6916	2
6917	9
6918	4
6919	4
6920	5
6921	4
6922	2
6923	0
6924	0
6925	1
6926	3
6927	3
6928	1
6929	2
6930	4
6931	5
6932	1
6933	0
6934	6
6935	2
6936	1
6937	3
6938	3
6939	2
6940	1
6941	3
6942	3
6943	3
6944	5
6945	1
6946	3
6947	3
6948	4
6949	6
6950	2
6951	4
6952	8
6953	2
6954	3
6955	3
6956	3
6957	1
6958	3
6959	2
6960	3
6961	5
6962	0
6963	1
6964	1
6965	3
6966	5
6967	3
6968	5
6969	5
6970	0
6971	1
6972	2
6973	3
6974	4
6975	2
6976	1
6977	1
6978	2
6979	1
6980	4
6981	4
6982	2
6983	0
6984	1
6985	5
6986	0
6987	3
6988	5
6989	4
6990	2
6991	2
6992	3
6993	4
6994	3
6995	1
6996	5
6997	3
6998	0
6999	3
7000	2
7001	1
7002	1
7003	0
7004	2
7005	3
7006	0
7007	3
7008	5
7009	4
7010	1
7011	3
7012	0
7013	1
7014	0
7015	3
7016	5
7017	3
7018	0
7019	3
7020	1
7021	3
7022	4
7023	4
7024	2
7025	5
7026	2
7027	4
7028	4
7029	3
7030	2
7031	2
7032	5
7033	5
7034	5
7035	3
7036	3
7037	5
7038	5
7039	2
7040	2
7041	4
7042	3
7043	4
7044	3
7045	3
7046	0
7047	4
7048	3
7049	3
7050	5
7051	4
7052	6
7053	1
7054	4
7055	3
7056	3
7057	3
7058	2
7059	1
7060	3
7061	2
7062	2
7063	3
7064	2
7065	4
7066	2
7067	1
7068	4
7069	5
7070	0
7071	3
7072	5
7073	2
7074	3
7075	5
7076	1
7077	2
7078	2
7079	1
7080	3
7081	3
7082	2
7083	4
7084	6
7085	3
7086	1
7087	3
7088	2
7089	5
7090	4
7091	3
7092	1
7093	1
7094	5
7095	2
7096	3
7097	4
7098	5
7099	2
7100	1
7101	1
7102	4
7103	4
7104	5
7105	1
7106	2
7107	5
7108	1
7109	0
7110	2
7111	2
7112	4
7113	0
7114	3
7115	2
7116	2
7117	2
7118	1
7119	2
7120	4
7121	2
7122	0
7123	4
7124	5
7125	1
7126	1
7127	1
7128	3
7129	1
7130	2
7131	4
7132	1
7133	3
7134	3
7135	8
7136	1
7137	2
7138	6
7139	5
7140	4
7141	3
7142	1
7143	4
7144	3
7145	3
7146	4
7147	1
7148	2
7149	4
7150	2
7151	0
7152	6
7153	2
7154	1
7155	2
7156	2
7157	5
7158	4
7159	3
7160	1
7161	2
7162	3
7163	0
7164	2
7165	1
7166	0
7167	3
7168	4
7169	4
7170	2
7171	1
7172	1
7173	3
7174	2
7175	1
7176	2
7177	2
7178	1
7179	1
7180	4
7181	3
7182	2
7183	3
7184	3
7185	2
7186	2
7187	3
7188	5
7189	0
7190	1
7191	4
7192	2
7193	3
7194	1
7195	0
7196	2
7197	4
7198	4
7199	5
7200	3
7201	4
7202	3
7203	2
7204	2
7205	1
7206	1
7207	1
7208	3
7209	3
7210	4
7211	1
7212	1
7213	3
7214	1
7215	0
7216	4
7217	2
7218	2
7219	2
7220	1
7221	3
7222	3
7223	2
7224	5
7225	6
7226	4
7227	3
7228	1
7229	4
7230	3
7231	1
7232	2
7233	1
7234	2
7235	4
7236	3
7237	3
7238	2
7239	4
7240	0
7241	1
7242	1
7243	2
7244	3
7245	0
7246	4
7247	2
7248	5
7249	3
7250	0
7251	4
7252	2
7253	1
7254	4
7255	2
7256	2
7257	3
7258	2
7259	2
7260	2
7261	4
7262	1
7263	3
7264	1
7265	1
7266	3
7267	1
7268	0
7269	5
7270	1
7271	4
7272	3
7273	2
7274	4
7275	1
7276	2
7277	2
7278	4
7279	5
7280	3
7281	4
7282	5
7283	1
7284	6
7285	2
7286	1
7287	5
7288	2
7289	2
7290	2
7291	0
7292	8
7293	3
7294	0
7295	2
7296	2
7297	4
7298	2
7299	2
7300	3
7301	2
7302	2
7303	5
7304	6
7305	4
7306	4
7307	0
7308	0
7309	2
7310	1
7311	0
7312	3
7313	2
7314	4
7315	1
7316	2
7317	2
7318	4
7319	1
7320	0
7321	3
7322	5
7323	2
7324	0
7325	2
7326	3
7327	1
7328	2
7329	2
7330	4
7331	1
7332	4
7333	2
7334	2
7335	2
7336	1
7337	2
7338	3
7339	2
7340	3
7341	1
7342	0
7343	1
7344	2
7345	4
7346	5
7347	2
7348	4
7349	2
7350	5
7351	2
7352	3
7353	0
7354	3
7355	2
7356	1
7357	6
7358	2
7359	2
7360	4
7361	3
7362	4
7363	0
7364	5
7365	1
7366	4
7367	0
7368	2
7369	1
7370	1
7371	3
7372	2
7373	3
7374	2
7375	2
7376	1
7377	4
7378	6
7379	2
7380	2
7381	5
7382	0
7383	1
7384	1
7385	2
7386	1
7387	1
7388	3
7389	2
7390	2
7391	3
7392	2
7393	4
7394	1
7395	1
7396	2
7397	4
7398	1
7399	2
7400	1
7401	3
7402	4
7403	3
7404	3
7405	4
7406	0
7407	1
7408	0
7409	2
7410	1
7411	1
7412	3
7413	4
7414	1
7415	2
7416	3
7417	4
7418	2
7419	3
7420	2
7421	1
7422	3
7423	1
7424	2
7425	5
7426	4
7427	5
7428	2
7429	2
7430	2
7431	4
7432	2
7433	5
7434	1
7435	0
7436	1
7437	5
7438	0
7439	2
7440	1
7441	3
7442	1
7443	0
7444	1
7445	1
7446	6
7447	3
7448	3
7449	2
7450	3
7451	0
7452	1
7453	4
7454	4
7455	2
7456	4
7457	7
7458	1
7459	0
7460	3
7461	2
7462	1
7463	3
7464	0
7465	2
7466	3
7467	3
7468	3
7469	0
7470	4
7471	1
7472	2
7473	2
7474	2
7475	3
7476	0
7477	1
7478	4
7479	3
7480	1
7481	4
7482	0
7483	2
7484	2
7485	2
7486	3
7487	4
7488	0
7489	4
7490	4
7491	0
7492	5
7493	1
7494	2
7495	3
7496	2
7497	1
7498	2
7499	0
7500	4
7501	2
7502	1
7503	4
7504	1
7505	1
7506	2
7507	3
7508	3
7509	1
7510	4
7511	1
7512	4
7513	4
7514	3
7515	2
7516	4
7517	3
7518	1
7519	0
7520	2
7521	1
7522	1
7523	0
7524	3
7525	0
7526	1
7527	2
7528	5
7529	7
7530	1
7531	1
7532	5
7533	1
7534	5
7535	0
7536	2
7537	2
7538	4
7539	2
7540	3
7541	3
7542	1
7543	0
7544	1
7545	2
7546	0
7547	3
7548	3
7549	6
7550	1
7551	4
7552	3
7553	0
7554	2
7555	3
7556	3
7557	0
7558	2
7559	4
7560	3
7561	1
7562	2
7563	4
7564	3
7565	3
7566	2
7567	5
7568	3
7569	2
7570	2
7571	3
7572	2
7573	3
7574	0
7575	4
7576	4
7577	1
7578	3
7579	0
7580	3
7581	3
7582	1
7583	0
7584	2
7585	2
7586	2
7587	2
7588	2
7589	4
7590	3
7591	5
7592	2
7593	1
7594	1
7595	2
7596	2
7597	1
7598	1
7599	2
7600	2
7601	3
7602	2
7603	1
7604	2
7605	1
7606	5
7607	2
7608	0
7609	3
7610	2
7611	3
7612	0
7613	4
7614	2
7615	1
7616	3
7617	1
7618	1
7619	1
7620	1
7621	3
7622	3
7623	2
7624	2
7625	1
7626	1
7627	2
7628	1
7629	3
7630	1
7631	3
7632	6
7633	2
7634	1
7635	3
7636	5
7637	3
7638	1
7639	3
7640	4
7641	2
7642	1
7643	3
7644	3
7645	1
7646	0
7647	3
7648	3
7649	5
7650	1
7651	1
7652	0
7653	3
7654	3
7655	4
7656	2
7657	2
7658	2
7659	2
7660	2
7661	0
7662	0
7663	1
7664	0
7665	2
7666	7
7667	1
7668	2
7669	0
7670	1
7671	1
7672	3
7673	1
7674	2
7675	3
7676	3
7677	8
7678	2
7679	1
7680	4
7681	2
7682	1
7683	2
7684	3
7685	2
7686	0
7687	2
7688	2
7689	3
7690	3
7691	3
7692	0
7693	2
7694	2
7695	5
7696	8
7697	1
7698	2
7699	3
7700	1
7701	1
7702	2
7703	3
7704	1
7705	1
7706	3
7707	1
7708	0
7709	3
7710	2
7711	1
7712	4
7713	1
7714	1
7715	1
7716	1
7717	2
7718	2
7719	2
7720	1
7721	2
7722	2
7723	1
7724	3
7725	1
7726	2
7727	3
7728	0
7729	5
7730	2
7731	3
7732	0
7733	0
7734	3
7735	3
7736	3
7737	2
7738	2
7739	3
7740	3
7741	2
7742	7
7743	2
7744	1
7745	1
7746	2
7747	1
7748	6
7749	2
7750	2
7751	2
7752	0
7753	1
7754	2
7755	3
7756	1
7757	4
7758	2
7759	5
7760	1
7761	1
7762	2
7763	3
7764	4
7765	1
7766	3
7767	0
7768	4
7769	2
7770	2
7771	0
7772	3
7773	2
7774	0
7775	3
7776	3
7777	2
7778	1
7779	3
7780	2
7781	5
7782	2
7783	1
7784	0
7785	2
7786	2
7787	5
7788	3
7789	2
7790	2
7791	1
7792	1
7793	2
7794	1
7795	2
7796	1
7797	1
7798	3
7799	2
7800	0
7801	0
7802	2
7803	0
7804	1
7805	1
7806	0
7807	1
7808	2
7809	6
7810	1
7811	2
7812	0
7813	3
7814	1
7815	2
7816	2
7817	3
7818	3
7819	4
7820	3
7821	2
7822	2
7823	0
7824	5
7825	0
7826	1
7827	1
7828	2
7829	1
7830	1
7831	3
7832	4
7833	0
7834	4
7835	4
7836	5
7837	4
7838	5
7839	3
7840	3
7841	3
7842	4
7843	3
7844	1
7845	1
7846	1
7847	0
7848	1
7849	2
7850	1
7851	3
7852	2
7853	3
7854	1
7855	1
7856	2
7857	2
7858	3
7859	2
7860	2
7861	2
7862	2
7863	3
7864	3
7865	5
7866	3
7867	2
7868	2
7869	2
7870	1
7871	3
7872	2
7873	1
7874	2
7875	3
7876	1
7877	5
7878	0
7879	2
7880	2
7881	2
7882	1
7883	2
7884	0
7885	1
7886	0
7887	2
7888	5
7889	1
7890	0
7891	3
7892	3
7893	4
7894	3
7895	3
7896	1
7897	2
7898	2
7899	2
7900	4
7901	0
7902	1
7903	2
7904	3
7905	3
7906	1
7907	1
7908	2
7909	1
7910	2
7911	3
7912	1
7913	3
7914	2
7915	3
7916	3
7917	0
7918	3
7919	3
7920	3
7921	3
7922	7
7923	0
7924	6
7925	0
7926	2
7927	1
7928	3
7929	1
7930	2
7931	0
7932	2
7933	2
7934	5
7935	5
7936	4
7937	4
7938	1
7939	1
7940	4
7941	1
7942	0
7943	0
7944	1
7945	3
7946	2
7947	3
7948	0
7949	1
7950	5
7951	0
7952	3
7953	7
7954	3
7955	1
7956	2
7957	2
7958	1
7959	6
7960	0
7961	2
7962	4
7963	2
7964	0
7965	3
7966	0
7967	1
7968	3
7969	1
7970	0
7971	2
7972	1
7973	1
7974	3
7975	0
7976	1
7977	2
7978	3
7979	4
7980	1
7981	3
7982	3
7983	2
7984	0
7985	3
7986	0
7987	1
7988	4
7989	2
7990	0
7991	2
7992	3
7993	1
7994	1
7995	2
7996	0
7997	3
7998	1
7999	3
8000	0
8001	3
8002	0
8003	2
8004	2
8005	0
8006	3
8007	4
8008	0
8009	1
8010	4
8011	1
8012	1
8013	3
8014	5
8015	3
8016	3
8017	2
8018	1
8019	3
8020	1
8021	0
8022	1
8023	4
8024	0
8025	1
8026	2
8027	2
8028	4
8029	1
8030	2
8031	1
8032	2
8033	4
8034	2
8035	4
8036	1
8037	0
8038	2
8039	3
8040	2
8041	0
8042	0
8043	4
8044	0
8045	3
8046	0
8047	2
8048	2
8049	4
8050	2
8051	2
8052	1
8053	1
8054	1
8055	0
8056	1
8057	4
8058	0
8059	2
8060	3
8061	1
8062	1
8063	1
8064	0
8065	0
8066	0
8067	0
8068	0
8069	0
8070	0
8071	0
8072	0
8073	0
8074	0
8075	0
8076	0
8077	0
8078	0
8079	0
8080	0
8081	0
8082	0
8083	0
8084	0
8085	0
8086	0
8087	0
8088	0
8089	0
8090	0
8091	0
8092	0
8093	0
8094	0
8095	0
8096	0
8097	0
8098	0
8099	0
8100	0
8101	0
8102	0
8103	0
8104	0
8105	0
8106	0
8107	0
8108	0
8109	0
8110	0
8111	0
8112	0
8113	0
8114	0
8115	0
8116	0
8117	0
8118	0
8119	0
8120	0
8121	0
8122	0
8123	0
8124	0
8125	0
8126	0
8127	0
8128	0
8129	0
8130	0
8131	0
8132	0
8133	0
8134	0
8135	0
8136	0
8137	0
8138	0
8139	0
8140	0
8141	0
8142	0
8143	0
8144	0
8145	0
8146	0
8147	0
8148	0
8149	0
8150	0
8151	0
8152	0
8153	0
8154	0
8155	0
8156	0
8157	0
8158	0
8159	0
8160	0
8161	0
8162	0
8163	0
8164	0
8165	0
8166	0
8167	0
8168	0
8169	0
8170	0
8171	0
8172	0
8173	0
8174	0
8175	0
8176	0
8177	0
8178	0
8179	0
8180	0
8181	0
8182	0
8183	0
8184	0
8185	0
8186	0
8187	0
8188	0
8189	0
8190	0
8191	0
