0	0
1	0
2	0
3	0
4	0
5	0
6	0
7	0
8	0
9	0
10	0
11	0
12	0
13	0
14	0
15	0
16	0
17	0
18	0
19	0
20	0
21	0
22	0
23	0
24	0
25	0
26	0
27	0
28	0
29	0
30	0
31	0
32	0
33	0
34	0
35	0
36	0
37	0
38	0
39	0
40	0
41	0
42	0
43	0
44	0
45	0
46	0
47	0
48	0
49	0
50	0
51	0
52	0
53	0
54	0
55	0
56	0
57	0
58	0
59	0
60	0
61	0
62	0
63	0
64	0
65	0
66	0
67	0
68	0
69	0
70	0
71	0
72	0
73	0
74	0
75	0
76	0
77	0
78	0
79	0
80	0
81	0
82	0
83	0
84	0
85	0
86	0
87	0
88	0
89	0
90	0
91	0
92	0
93	0
94	0
95	0
96	0
97	0
98	0
99	0
100	0
101	0
102	0
103	0
104	0
105	0
106	0
107	0
108	0
109	0
110	0
111	0
112	0
113	0
114	0
115	0
116	0
117	1
118	277
119	1151
120	1743
121	2214
122	2169
123	2124
124	2143
125	2173
126	2124
127	2133
128	2028
129	2121
130	2074
131	2151
132	1988
133	1995
134	1968
135	2000
136	1918
137	2015
138	1940
139	1827
140	1865
141	1869
142	1941
143	1849
144	1823
145	1805
146	1837
147	1724
148	1862
149	1734
150	1785
151	1779
152	1716
153	1750
154	1706
155	1686
156	1663
157	1669
158	1697
159	1716
160	1610
161	1659
162	1602
163	1615
164	1669
165	1567
166	1661
167	1631
168	1639
169	1582
170	1606
171	1559
172	1592
173	1619
174	1556
175	1543
176	1557
177	1612
178	1562
179	1463
180	1539
181	1532
182	1508
183	1563
184	1493
185	1481
186	1559
187	1644
188	1735
189	1662
190	1597
191	1563
192	1549
193	1474
194	1544
195	1521
196	1503
197	1523
198	1483
199	1525
200	1543
201	1557
202	1481
203	1568
204	1625
205	1531
206	1650
207	1621
208	1529
209	1599
210	1612
211	1609
212	1507
213	1609
214	1609
215	1521
216	1635
217	1603
218	1622
219	1640
220	1680
221	1694
222	1821
223	1757
224	1702
225	1801
226	1840
227	1847
228	1825
229	1907
230	2080
231	2315
232	2446
233	2270
234	2007
235	1918
236	1885
237	1999
238	1888
239	2045
240	1987
241	2066
242	2077
243	2099
244	2059
245	2001
246	2121
247	2084
248	2090
249	2134
250	2221
251	2135
252	2274
253	2178
254	2207
255	2342
256	2290
257	2234
258	2453
259	3031
260	4351
261	5578
262	5453
263	4627
264	3366
265	3732
266	6106
267	7887
268	7942
269	5800
270	3228
271	2124
272	2239
273	2363
274	2254
275	2124
276	2039
277	2124
278	2075
279	2092
280	1864
281	1799
282	1886
283	2128
284	2404
285	2564
286	2503
287	2233
288	2034
289	1933
290	1982
291	2570
292	3406
293	4194
294	4048
295	3543
296	2633
297	2083
298	2114
299	2487
300	2838
301	2953
302	2542
303	2127
304	1853
305	2133
306	2679
307	3280
308	3397
309	3130
310	2515
311	2062
312	1951
313	1913
314	1825
315	1755
316	1587
317	1612
318	1555
319	1583
320	1698
321	1676
322	1793
323	1799
324	1748
325	1803
326	1739
327	1724
328	1643
329	1530
330	1598
331	1576
332	1592
333	1629
334	1592
335	1632
336	1629
337	1642
338	1716
339	1717
340	1817
341	1715
342	1686
343	1743
344	1716
345	1670
346	1686
347	1616
348	1604
349	1724
350	1726
351	1704
352	1721
353	1767
354	1671
355	1755
356	1727
357	1762
358	1822
359	1740
360	1835
361	1799
362	1791
363	1722
364	1677
365	1778
366	1705
367	1734
368	1714
369	1690
370	1684
371	1639
372	1680
373	1640
374	1614
375	1732
376	1653
377	1713
378	1650
379	1667
380	1836
381	1749
382	1733
383	1689
384	1711
385	1729
386	1806
387	1732
388	1704
389	1751
390	1690
391	1660
392	1707
393	1783
394	1733
395	1697
396	1871
397	1760
398	1769
399	1843
400	1751
401	1886
402	2001
403	1894
404	1886
405	1746
406	1740
407	1750
408	1677
409	1797
410	1694
411	1782
412	1714
413	1638
414	1745
415	1712
416	1718
417	1750
418	1759
419	1734
420	1670
421	1747
422	1777
423	1740
424	1673
425	1705
426	1799
427	1800
428	1767
429	1842
430	1854
431	1827
432	1805
433	1759
434	1834
435	1774
436	1791
437	1749
438	1799
439	2092
440	2114
441	1994
442	1899
443	1819
444	1825
445	1790
446	1704
447	1760
448	1824
449	1829
450	1787
451	1810
452	1849
453	1840
454	1829
455	1791
456	1804
457	1789
458	1810
459	1811
460	1862
461	1821
462	1859
463	1836
464	1814
465	1938
466	2061
467	1954
468	1970
469	1869
470	1790
471	1811
472	1751
473	1756
474	1757
475	1708
476	1731
477	1709
478	1769
479	1747
480	1745
481	1638
482	1680
483	1633
484	1676
485	1630
486	1635
487	1671
488	1645
489	1654
490	1684
491	1739
492	1737
493	1615
494	1610
495	1586
496	1577
497	1574
498	1663
499	1704
500	1563
501	1687
502	1649
503	1655
504	1551
505	1626
506	1588
507	1646
508	1592
509	1551
510	1586
511	1654
512	1578
513	1487
514	1533
515	1604
516	1588
517	1581
518	1596
519	1565
520	1579
521	1551
522	1545
523	1533
524	1502
525	1579
526	1512
527	1518
528	1524
529	1591
530	1605
531	1590
532	1588
533	1546
534	1532
535	1622
536	1545
537	1530
538	1514
539	1591
540	1558
541	1566
542	1581
543	1557
544	1601
545	1648
546	1840
547	2645
548	4082
549	5412
550	5616
551	4451
552	2919
553	1878
554	1546
555	1508
556	1523
557	1523
558	1493
559	1543
560	1485
561	1466
562	1465
563	1456
564	1458
565	1516
566	1547
567	1429
568	1507
569	1478
570	1431
571	1392
572	1472
573	1402
574	1522
575	1525
576	1448
577	1494
578	1474
579	1457
580	1531
581	1467
582	1525
583	1521
584	1442
585	1399
586	1442
587	1407
588	1331
589	1449
590	1419
591	1390
592	1323
593	1360
594	1437
595	1309
596	1317
597	1357
598	1397
599	1438
600	1414
601	1398
602	1363
603	1378
604	1318
605	1289
606	1353
607	1398
608	1513
609	1603
610	1584
611	1471
612	1374
613	1280
614	1287
615	1280
616	1217
617	1256
618	1257
619	1227
620	1292
621	1221
622	1273
623	1173
624	1277
625	1187
626	1258
627	1219
628	1301
629	1207
630	1272
631	1229
632	1259
633	1253
634	1283
635	1220
636	1170
637	1255
638	1256
639	1238
640	1189
641	1144
642	1289
643	1197
644	1232
645	1171
646	1174
647	1193
648	1197
649	1164
650	1278
651	1189
652	1247
653	1169
654	1175
655	1219
656	1172
657	1136
658	1176
659	1208
660	1166
661	1126
662	1139
663	1203
664	1213
665	1195
666	1186
667	1206
668	1185
669	1198
670	1126
671	1175
672	1110
673	1169
674	1158
675	1113
676	1210
677	1273
678	1357
679	1396
680	1368
681	1213
682	1256
683	1962
684	3333
685	4593
686	4888
687	4000
688	2493
689	1471
690	1332
691	1706
692	3018
693	5032
694	6183
695	5902
696	4426
697	2231
698	1225
699	1065
700	1057
701	964
702	1016
703	1004
704	983
705	988
706	949
707	939
708	940
709	978
710	974
711	955
712	986
713	968
714	974
715	962
716	935
717	1004
718	972
719	966
720	907
721	995
722	1006
723	952
724	961
725	942
726	965
727	920
728	946
729	957
730	1076
731	1063
732	1063
733	1006
734	925
735	958
736	1103
737	1209
738	1271
739	1174
740	1067
741	1027
742	907
743	888
744	863
745	890
746	884
747	899
748	846
749	835
750	859
751	829
752	857
753	866
754	894
755	858
756	896
757	884
758	833
759	860
760	857
761	889
762	855
763	966
764	1096
765	1183
766	1287
767	1281
768	1261
769	1273
770	1165
771	1050
772	991
773	888
774	915
775	858
776	957
777	959
778	1060
779	1042
780	1062
781	1006
782	884
783	903
784	892
785	1015
786	975
787	939
788	996
789	855
790	844
791	852
792	806
793	856
794	910
795	831
796	831
797	860
798	885
799	839
800	861
801	871
802	868
803	856
804	840
805	786
806	797
807	814
808	862
809	808
810	865
811	824
812	831
813	871
814	832
815	868
816	814
817	770
818	851
819	868
820	758
821	797
822	841
823	810
824	841
825	848
826	827
827	791
828	1040
829	2216
830	5614
831	10003
832	11908
833	10968
834	6841
835	2876
836	1060
837	826
838	701
839	719
840	715
841	752
842	764
843	816
844	990
845	1051
846	944
847	786
848	720
849	709
850	780
851	702
852	691
853	722
854	722
855	709
856	746
857	757
858	744
859	734
860	710
861	675
862	673
863	741
864	695
865	665
866	667
867	677
868	708
869	656
870	677
871	696
872	681
873	643
874	672
875	704
876	659
877	655
878	649
879	691
880	667
881	763
882	694
883	683
884	684
885	620
886	663
887	660
888	636
889	628
890	699
891	637
892	667
893	627
894	680
895	675
896	685
897	642
898	673
899	620
900	660
901	638
902	661
903	681
904	672
905	705
906	729
907	754
908	734
909	655
910	672
911	660
912	626
913	710
914	721
915	727
916	837
917	892
918	839
919	741
920	667
921	736
922	719
923	695
924	672
925	694
926	607
927	622
928	673
929	692
930	660
931	678
932	727
933	682
934	672
935	632
936	697
937	677
938	638
939	652
940	648
941	843
942	1127
943	1364
944	1401
945	1391
946	911
947	758
948	632
949	607
950	682
951	651
952	642
953	661
954	643
955	643
956	639
957	582
958	638
959	656
960	617
961	637
962	617
963	622
964	668
965	634
966	578
967	647
968	633
969	657
970	702
971	695
972	738
973	710
974	806
975	1316
976	3785
977	10034
978	17116
979	20135
980	17274
981	10371
982	3910
983	1133
984	618
985	543
986	580
987	545
988	514
989	522
990	490
991	508
992	530
993	508
994	528
995	514
996	505
997	528
998	532
999	518
1000	499
1001	503
1002	526
1003	485
1004	491
1005	519
1006	513
1007	513
1008	466
1009	498
1010	504
1011	510
1012	518
1013	539
1014	481
1015	483
1016	491
1017	527
1018	545
1019	479
1020	505
1021	511
1022	507
1023	467
1024	473
1025	543
1026	449
1027	541
1028	492
1029	500
1030	544
1031	507
1032	534
1033	495
1034	520
1035	482
1036	485
1037	499
1038	471
1039	524
1040	487
1041	532
1042	489
1043	506
1044	530
1045	490
1046	524
1047	470
1048	506
1049	517
1050	468
1051	494
1052	502
1053	453
1054	461
1055	508
1056	519
1057	509
1058	497
1059	467
1060	496
1061	509
1062	499
1063	525
1064	499
1065	521
1066	541
1067	513
1068	596
1069	658
1070	597
1071	590
1072	534
1073	599
1074	653
1075	694
1076	603
1077	558
1078	587
1079	456
1080	467
1081	548
1082	489
1083	538
1084	496
1085	510
1086	499
1087	495
1088	505
1089	512
1090	506
1091	495
1092	510
1093	488
1094	543
1095	499
1096	522
1097	483
1098	493
1099	493
1100	498
1101	507
1102	491
1103	476
1104	466
1105	526
1106	550
1107	566
1108	612
1109	572
1110	589
1111	539
1112	533
1113	512
1114	509
1115	551
1116	541
1117	559
1118	623
1119	612
1120	548
1121	504
1122	491
1123	503
1124	509
1125	528
1126	550
1127	582
1128	586
1129	621
1130	594
1131	488
1132	488
1133	540
1134	496
1135	475
1136	471
1137	543
1138	509
1139	532
1140	474
1141	492
1142	506
1143	514
1144	491
1145	453
1146	444
1147	505
1148	477
1149	492
1150	538
1151	479
1152	466
1153	473
1154	492
1155	444
1156	492
1157	489
1158	486
1159	514
1160	504
1161	481
1162	490
1163	503
1164	495
1165	453
1166	467
1167	467
1168	462
1169	462
1170	500
1171	495
1172	486
1173	483
1174	492
1175	456
1176	464
1177	449
1178	467
1179	445
1180	413
1181	416
1182	455
1183	451
1184	434
1185	453
1186	408
1187	422
1188	440
1189	443
1190	404
1191	410
1192	413
1193	385
1194	411
1195	383
1196	411
1197	413
1198	401
1199	397
1200	418
1201	423
1202	426
1203	449
1204	419
1205	422
1206	420
1207	396
1208	434
1209	390
1210	393
1211	381
1212	419
1213	395
1214	385
1215	378
1216	398
1217	397
1218	426
1219	378
1220	417
1221	415
1222	364
1223	346
1224	393
1225	381
1226	366
1227	397
1228	377
1229	381
1230	401
1231	384
1232	364
1233	357
1234	390
1235	344
1236	376
1237	359
1238	384
1239	386
1240	406
1241	424
1242	407
1243	422
1244	427
1245	496
1246	474
1247	473
1248	388
1249	345
1250	363
1251	339
1252	370
1253	340
1254	379
1255	349
1256	368
1257	337
1258	362
1259	351
1260	363
1261	406
1262	404
1263	418
1264	450
1265	581
1266	589
1267	613
1268	538
1269	438
1270	395
1271	329
1272	347
1273	365
1274	359
1275	343
1276	357
1277	391
1278	342
1279	320
1280	361
1281	370
1282	376
1283	378
1284	378
1285	393
1286	381
1287	316
1288	342
1289	335
1290	327
1291	293
1292	357
1293	378
1294	337
1295	355
1296	387
1297	345
1298	355
1299	351
1300	345
1301	317
1302	333
1303	338
1304	357
1305	350
1306	322
1307	353
1308	317
1309	371
1310	394
1311	468
1312	465
1313	399
1314	390
1315	357
1316	312
1317	328
1318	307
1319	314
1320	335
1321	311
1322	335
1323	297
1324	323
1325	297
1326	370
1327	391
1328	440
1329	461
1330	407
1331	387
1332	381
1333	328
1334	317
1335	306
1336	329
1337	306
1338	328
1339	311
1340	310
1341	292
1342	294
1343	314
1344	303
1345	300
1346	296
1347	328
1348	308
1349	291
1350	276
1351	301
1352	286
1353	268
1354	311
1355	327
1356	284
1357	308
1358	307
1359	314
1360	295
1361	288
1362	312
1363	309
1364	316
1365	269
1366	314
1367	269
1368	312
1369	307
1370	284
1371	288
1372	304
1373	293
1374	310
1375	301
1376	289
1377	290
1378	298
1379	289
1380	314
1381	293
1382	309
1383	358
1384	342
1385	436
1386	433
1387	575
1388	736
1389	908
1390	1039
1391	955
1392	870
1393	710
1394	591
1395	497
1396	358
1397	348
1398	327
1399	319
1400	296
1401	307
1402	262
1403	308
1404	292
1405	302
1406	298
1407	269
1408	303
1409	321
1410	271
1411	291
1412	303
1413	271
1414	292
1415	313
1416	303
1417	287
1418	313
1419	293
1420	276
1421	294
1422	290
1423	270
1424	295
1425	300
1426	293
1427	256
1428	324
1429	275
1430	258
1431	262
1432	283
1433	265
1434	287
1435	289
1436	260
1437	305
1438	303
1439	271
1440	271
1441	261
1442	289
1443	292
1444	256
1445	275
1446	279
1447	287
1448	325
1449	364
1450	352
1451	331
1452	318
1453	274
1454	249
1455	303
1456	283
1457	288
1458	299
1459	322
1460	285
1461	304
1462	307
1463	288
1464	268
1465	300
1466	241
1467	237
1468	288
1469	268
1470	276
1471	279
1472	315
1473	312
1474	292
1475	284
1476	310
1477	306
1478	287
1479	281
1480	295
1481	299
1482	285
1483	297
1484	283
1485	269
1486	311
1487	297
1488	249
1489	281
1490	252
1491	282
1492	238
1493	295
1494	275
1495	290
1496	291
1497	246
1498	296
1499	277
1500	237
1501	274
1502	282
1503	256
1504	263
1505	274
1506	301
1507	257
1508	276
1509	282
1510	302
1511	266
1512	273
1513	278
1514	259
1515	274
1516	266
1517	266
1518	267
1519	295
1520	250
1521	281
1522	287
1523	306
1524	318
1525	286
1526	319
1527	283
1528	254
1529	277
1530	261
1531	295
1532	277
1533	277
1534	287
1535	276
1536	286
1537	274
1538	241
1539	263
1540	283
1541	262
1542	277
1543	291
1544	273
1545	313
1546	262
1547	292
1548	282
1549	267
1550	280
1551	282
1552	271
1553	264
1554	296
1555	258
1556	270
1557	267
1558	253
1559	276
1560	249
1561	289
1562	261
1563	287
1564	275
1565	239
1566	233
1567	278
1568	309
1569	332
1570	421
1571	383
1572	333
1573	299
1574	389
1575	570
1576	944
1577	1353
1578	1417
1579	1270
1580	825
1581	511
1582	323
1583	274
1584	248
1585	244
1586	248
1587	261
1588	242
1589	246
1590	255
1591	253
1592	236
1593	262
1594	217
1595	234
1596	239
1597	238
1598	239
1599	229
1600	233
1601	269
1602	231
1603	240
1604	241
1605	271
1606	270
1607	225
1608	272
1609	268
1610	276
1611	243
1612	286
1613	237
1614	266
1615	267
1616	276
1617	279
1618	262
1619	263
1620	275
1621	244
1622	252
1623	253
1624	264
1625	242
1626	276
1627	261
1628	262
1629	245
1630	251
1631	285
1632	266
1633	284
1634	268
1635	268
1636	243
1637	255
1638	285
1639	235
1640	322
1641	611
1642	1941
1643	5327
1644	10325
1645	13679
1646	14302
1647	10947
1648	5969
1649	2288
1650	711
1651	297
1652	213
1653	245
1654	239
1655	225
1656	205
1657	228
1658	208
1659	215
1660	223
1661	219
1662	230
1663	232
1664	214
1665	235
1666	226
1667	201
1668	218
1669	214
1670	212
1671	205
1672	222
1673	201
1674	209
1675	216
1676	231
1677	201
1678	228
1679	211
1680	223
1681	188
1682	194
1683	198
1684	189
1685	195
1686	209
1687	176
1688	189
1689	216
1690	214
1691	175
1692	215
1693	215
1694	202
1695	184
1696	189
1697	199
1698	212
1699	232
1700	197
1701	220
1702	196
1703	199
1704	198
1705	242
1706	210
1707	198
1708	231
1709	197
1710	199
1711	207
1712	223
1713	211
1714	177
1715	195
1716	212
1717	186
1718	210
1719	189
1720	189
1721	195
1722	178
1723	197
1724	195
1725	201
1726	208
1727	240
1728	209
1729	226
1730	201
1731	200
1732	192
1733	196
1734	184
1735	185
1736	212
1737	199
1738	190
1739	191
1740	183
1741	167
1742	196
1743	203
1744	197
1745	210
1746	191
1747	212
1748	225
1749	225
1750	187
1751	224
1752	186
1753	206
1754	178
1755	204
1756	197
1757	185
1758	194
1759	183
1760	197
1761	224
1762	192
1763	205
1764	188
1765	176
1766	209
1767	194
1768	195
1769	183
1770	199
1771	210
1772	212
1773	204
1774	204
1775	202
1776	208
1777	210
1778	204
1779	229
1780	216
1781	200
1782	194
1783	186
1784	216
1785	184
1786	211
1787	245
1788	324
1789	430
1790	558
1791	616
1792	552
1793	412
1794	261
1795	207
1796	211
1797	178
1798	197
1799	199
1800	184
1801	215
1802	187
1803	190
1804	176
1805	198
1806	186
1807	188
1808	169
1809	177
1810	200
1811	217
1812	226
1813	201
1814	196
1815	218
1816	162
1817	207
1818	221
1819	193
1820	204
1821	191
1822	180
1823	173
1824	210
1825	156
1826	183
1827	199
1828	186
1829	190
1830	215
1831	180
1832	207
1833	187
1834	197
1835	209
1836	198
1837	200
1838	218
1839	190
1840	196
1841	198
1842	193
1843	167
1844	189
1845	188
1846	202
1847	196
1848	183
1849	175
1850	227
1851	191
1852	174
1853	192
1854	178
1855	200
1856	183
1857	188
1858	175
1859	209
1860	189
1861	190
1862	192
1863	209
1864	190
1865	209
1866	172
1867	191
1868	202
1869	200
1870	206
1871	188
1872	192
1873	200
1874	244
1875	189
1876	200
1877	198
1878	197
1879	196
1880	198
1881	216
1882	225
1883	186
1884	200
1885	229
1886	302
1887	292
1888	303
1889	295
1890	292
1891	274
1892	237
1893	224
1894	199
1895	193
1896	208
1897	192
1898	211
1899	200
1900	213
1901	196
1902	215
1903	229
1904	215
1905	204
1906	199
1907	253
1908	191
1909	205
1910	181
1911	190
1912	188
1913	182
1914	176
1915	197
1916	163
1917	217
1918	199
1919	186
1920	173
1921	162
1922	197
1923	200
1924	196
1925	169
1926	176
1927	197
1928	210
1929	197
1930	267
1931	259
1932	275
1933	267
1934	207
1935	214
1936	185
1937	166
1938	185
1939	187
1940	188
1941	188
1942	166
1943	169
1944	191
1945	195
1946	175
1947	216
1948	239
1949	326
1950	395
1951	431
1952	405
1953	328
1954	299
1955	194
1956	180
1957	185
1958	198
1959	174
1960	163
1961	214
1962	166
1963	182
1964	165
1965	194
1966	167
1967	180
1968	184
1969	189
1970	169
1971	177
1972	165
1973	175
1974	168
1975	203
1976	174
1977	183
1978	202
1979	176
1980	158
1981	167
1982	155
1983	162
1984	170
1985	166
1986	180
1987	207
1988	197
1989	190
1990	253
1991	236
1992	264
1993	192
1994	213
1995	178
1996	195
1997	181
1998	173
1999	193
2000	167
2001	190
2002	185
2003	161
2004	173
2005	170
2006	179
2007	167
2008	155
2009	203
2010	177
2011	179
2012	159
2013	173
2014	152
2015	203
2016	205
2017	196
2018	201
2019	180
2020	181
2021	178
2022	206
2023	204
2024	215
2025	183
2026	162
2027	183
2028	169
2029	152
2030	168
2031	173
2032	178
2033	163
2034	156
2035	157
2036	169
2037	158
2038	169
2039	180
2040	174
2041	180
2042	164
2043	173
2044	215
2045	201
2046	153
2047	163
2048	173
2049	203
2050	174
2051	217
2052	220
2053	275
2054	413
2055	621
2056	1051
2057	1313
2058	1430
2059	1075
2060	703
2061	401
2062	265
2063	187
2064	155
2065	175
2066	212
2067	207
2068	183
2069	213
2070	186
2071	168
2072	186
2073	173
2074	168
2075	149
2076	166
2077	168
2078	145
2079	180
2080	153
2081	159
2082	178
2083	158
2084	172
2085	152
2086	153
2087	158
2088	168
2089	145
2090	151
2091	150
2092	172
2093	175
2094	202
2095	179
2096	165
2097	163
2098	170
2099	206
2100	268
2101	366
2102	464
2103	467
2104	433
2105	347
2106	254
2107	211
2108	157
2109	159
2110	159
2111	160
2112	164
2113	135
2114	174
2115	169
2116	156
2117	160
2118	164
2119	173
2120	167
2121	165
2122	145
2123	188
2124	197
2125	260
2126	301
2127	317
2128	263
2129	209
2130	179
2131	159
2132	177
2133	179
2134	175
2135	168
2136	162
2137	170
2138	190
2139	176
2140	172
2141	170
2142	167
2143	140
2144	152
2145	169
2146	176
2147	185
2148	160
2149	177
2150	171
2151	173
2152	199
2153	280
2154	370
2155	455
2156	479
2157	387
2158	292
2159	219
2160	171
2161	192
2162	158
2163	138
2164	163
2165	163
2166	162
2167	172
2168	155
2169	178
2170	151
2171	154
2172	163
2173	150
2174	147
2175	153
2176	172
2177	169
2178	152
2179	179
2180	170
2181	157
2182	152
2183	163
2184	156
2185	153
2186	143
2187	161
2188	148
2189	174
2190	179
2191	180
2192	192
2193	198
2194	204
2195	196
2196	174
2197	170
2198	139
2199	153
2200	159
2201	189
2202	163
2203	156
2204	143
2205	165
2206	192
2207	212
2208	200
2209	173
2210	173
2211	169
2212	169
2213	166
2214	169
2215	159
2216	153
2217	147
2218	161
2219	186
2220	187
2221	202
2222	170
2223	176
2224	187
2225	149
2226	165
2227	166
2228	158
2229	161
2230	186
2231	186
2232	203
2233	205
2234	193
2235	163
2236	188
2237	196
2238	214
2239	306
2240	334
2241	347
2242	314
2243	280
2244	242
2245	206
2246	161
2247	193
2248	155
2249	163
2250	163
2251	156
2252	161
2253	165
2254	174
2255	144
2256	147
2257	173
2258	176
2259	155
2260	169
2261	180
2262	165
2263	182
2264	160
2265	170
2266	167
2267	156
2268	158
2269	165
2270	155
2271	144
2272	169
2273	163
2274	184
2275	164
2276	162
2277	184
2278	177
2279	166
2280	151
2281	165
2282	180
2283	159
2284	168
2285	170
2286	176
2287	166
2288	164
2289	180
2290	181
2291	161
2292	173
2293	197
2294	207
2295	277
2296	329
2297	306
2298	256
2299	226
2300	194
2301	140
2302	158
2303	167
2304	158
2305	163
2306	171
2307	153
2308	158
2309	163
2310	183
2311	143
2312	168
2313	180
2314	160
2315	150
2316	197
2317	151
2318	167
2319	152
2320	176
2321	169
2322	163
2323	192
2324	152
2325	140
2326	168
2327	173
2328	182
2329	181
2330	163
2331	186
2332	181
2333	169
2334	175
2335	160
2336	165
2337	166
2338	185
2339	178
2340	164
2341	170
2342	159
2343	149
2344	160
2345	163
2346	169
2347	160
2348	191
2349	173
2350	162
2351	175
2352	178
2353	178
2354	174
2355	166
2356	176
2357	167
2358	145
2359	156
2360	152
2361	139
2362	156
2363	169
2364	162
2365	169
2366	194
2367	166
2368	144
2369	150
2370	146
2371	168
2372	179
2373	175
2374	165
2375	168
2376	163
2377	167
2378	176
2379	173
2380	170
2381	164
2382	154
2383	185
2384	183
2385	170
2386	174
2387	179
2388	145
2389	166
2390	198
2391	173
2392	177
2393	187
2394	176
2395	175
2396	171
2397	163
2398	175
2399	173
2400	167
2401	161
2402	183
2403	174
2404	151
2405	163
2406	164
2407	184
2408	185
2409	192
2410	200
2411	186
2412	182
2413	173
2414	150
2415	161
2416	172
2417	162
2418	166
2419	154
2420	167
2421	165
2422	166
2423	195
2424	279
2425	448
2426	684
2427	887
2428	888
2429	785
2430	575
2431	324
2432	243
2433	165
2434	158
2435	149
2436	154
2437	158
2438	144
2439	165
2440	177
2441	177
2442	166
2443	176
2444	168
2445	155
2446	149
2447	158
2448	174
2449	136
2450	151
2451	133
2452	179
2453	141
2454	156
2455	157
2456	153
2457	155
2458	170
2459	163
2460	141
2461	145
2462	126
2463	143
2464	174
2465	115
2466	165
2467	143
2468	159
2469	155
2470	145
2471	177
2472	132
2473	156
2474	134
2475	147
2476	184
2477	133
2478	147
2479	155
2480	151
2481	168
2482	171
2483	220
2484	358
2485	500
2486	719
2487	809
2488	761
2489	532
2490	334
2491	233
2492	161
2493	158
2494	138
2495	157
2496	155
2497	111
2498	128
2499	146
2500	140
2501	128
2502	126
2503	142
2504	142
2505	139
2506	147
2507	153
2508	146
2509	153
2510	153
2511	155
2512	152
2513	148
2514	155
2515	135
2516	138
2517	155
2518	136
2519	143
2520	149
2521	155
2522	126
2523	152
2524	182
2525	168
2526	176
2527	170
2528	172
2529	146
2530	184
2531	166
2532	164
2533	152
2534	146
2535	152
2536	140
2537	146
2538	147
2539	137
2540	143
2541	165
2542	141
2543	146
2544	118
2545	160
2546	137
2547	135
2548	131
2549	146
2550	156
2551	132
2552	153
2553	150
2554	155
2555	140
2556	155
2557	140
2558	155
2559	146
2560	152
2561	169
2562	187
2563	246
2564	278
2565	303
2566	357
2567	329
2568	284
2569	226
2570	172
2571	156
2572	168
2573	183
2574	237
2575	364
2576	511
2577	579
2578	573
2579	485
2580	313
2581	223
2582	171
2583	146
2584	136
2585	142
2586	154
2587	119
2588	136
2589	149
2590	138
2591	122
2592	131
2593	132
2594	131
2595	144
2596	146
2597	145
2598	113
2599	154
2600	121
2601	140
2602	149
2603	123
2604	138
2605	156
2606	140
2607	143
2608	128
2609	128
2610	140
2611	144
2612	136
2613	131
2614	138
2615	127
2616	133
2617	136
2618	121
2619	122
2620	114
2621	128
2622	136
2623	136
2624	119
2625	132
2626	145
2627	134
2628	147
2629	124
2630	158
2631	138
2632	107
2633	146
2634	157
2635	139
2636	139
2637	140
2638	123
2639	139
2640	138
2641	135
2642	112
2643	140
2644	133
2645	144
2646	142
2647	141
2648	132
2649	121
2650	133
2651	156
2652	135
2653	139
2654	139
2655	153
2656	127
2657	141
2658	175
2659	187
2660	223
2661	208
2662	225
2663	190
2664	147
2665	124
2666	120
2667	142
2668	111
2669	144
2670	149
2671	119
2672	137
2673	133
2674	135
2675	137
2676	158
2677	142
2678	149
2679	118
2680	133
2681	115
2682	130
2683	163
2684	143
2685	119
2686	140
2687	131
2688	162
2689	109
2690	136
2691	119
2692	126
2693	138
2694	131
2695	129
2696	162
2697	130
2698	110
2699	119
2700	134
2701	137
2702	140
2703	115
2704	122
2705	135
2706	136
2707	131
2708	144
2709	136
2710	123
2711	120
2712	133
2713	130
2714	126
2715	139
2716	141
2717	112
2718	124
2719	126
2720	146
2721	133
2722	133
2723	129
2724	142
2725	132
2726	128
2727	133
2728	102
2729	127
2730	130
2731	122
2732	131
2733	125
2734	146
2735	116
2736	131
2737	113
2738	137
2739	133
2740	167
2741	161
2742	137
2743	127
2744	127
2745	128
2746	137
2747	133
2748	116
2749	117
2750	131
2751	129
2752	120
2753	98
2754	109
2755	129
2756	123
2757	129
2758	140
2759	131
2760	129
2761	125
2762	118
2763	118
2764	127
2765	145
2766	113
2767	133
2768	135
2769	130
2770	125
2771	127
2772	124
2773	138
2774	130
2775	118
2776	115
2777	135
2778	126
2779	116
2780	112
2781	128
2782	138
2783	126
2784	112
2785	127
2786	122
2787	114
2788	143
2789	143
2790	166
2791	151
2792	173
2793	195
2794	199
2795	154
2796	127
2797	128
2798	117
2799	140
2800	147
2801	124
2802	115
2803	140
2804	123
2805	138
2806	125
2807	128
2808	126
2809	136
2810	128
2811	121
2812	132
2813	122
2814	131
2815	123
2816	122
2817	120
2818	145
2819	120
2820	134
2821	153
2822	137
2823	128
2824	133
2825	136
2826	130
2827	134
2828	124
2829	106
2830	154
2831	128
2832	137
2833	140
2834	136
2835	115
2836	158
2837	176
2838	151
2839	159
2840	184
2841	171
2842	136
2843	112
2844	134
2845	114
2846	150
2847	124
2848	119
2849	132
2850	128
2851	120
2852	113
2853	144
2854	134
2855	143
2856	117
2857	147
2858	126
2859	127
2860	123
2861	135
2862	127
2863	146
2864	138
2865	145
2866	110
2867	117
2868	138
2869	127
2870	132
2871	137
2872	100
2873	101
2874	107
2875	131
2876	115
2877	124
2878	136
2879	128
2880	126
2881	123
2882	122
2883	115
2884	130
2885	124
2886	116
2887	117
2888	141
2889	126
2890	122
2891	132
2892	107
2893	101
2894	122
2895	131
2896	134
2897	136
2898	132
2899	118
2900	136
2901	127
2902	126
2903	127
2904	128
2905	122
2906	133
2907	139
2908	141
2909	132
2910	151
2911	121
2912	139
2913	147
2914	123
2915	127
2916	121
2917	108
2918	127
2919	129
2920	126
2921	131
2922	127
2923	118
2924	136
2925	124
2926	145
2927	158
2928	156
2929	138
2930	134
2931	113
2932	117
2933	149
2934	118
2935	124
2936	112
2937	141
2938	116
2939	159
2940	117
2941	140
2942	130
2943	119
2944	116
2945	124
2946	136
2947	145
2948	122
2949	120
2950	120
2951	135
2952	138
2953	118
2954	116
2955	148
2956	138
2957	122
2958	114
2959	128
2960	125
2961	133
2962	120
2963	118
2964	165
2965	324
2966	700
2967	1315
2968	2072
2969	2832
2970	2857
2971	2396
2972	1482
2973	846
2974	411
2975	198
2976	127
2977	140
2978	126
2979	118
2980	108
2981	127
2982	146
2983	112
2984	112
2985	124
2986	123
2987	129
2988	137
2989	135
2990	118
2991	129
2992	124
2993	129
2994	138
2995	145
2996	115
2997	120
2998	158
2999	115
3000	129
3001	123
3002	189
3003	170
3004	175
3005	158
3006	152
3007	145
3008	120
3009	112
3010	129
3011	144
3012	134
3013	112
3014	130
3015	132
3016	127
3017	133
3018	132
3019	135
3020	124
3021	121
3022	114
3023	118
3024	127
3025	112
3026	125
3027	101
3028	119
3029	112
3030	128
3031	125
3032	114
3033	111
3034	111
3035	131
3036	144
3037	118
3038	137
3039	134
3040	124
3041	112
3042	120
3043	134
3044	112
3045	139
3046	125
3047	136
3048	141
3049	120
3050	127
3051	130
3052	140
3053	133
3054	125
3055	148
3056	168
3057	265
3058	311
3059	387
3060	420
3061	421
3062	314
3063	245
3064	170
3065	149
3066	128
3067	119
3068	127
3069	127
3070	118
3071	111
3072	108
3073	126
3074	119
3075	152
3076	114
3077	116
3078	126
3079	125
3080	110
3081	114
3082	114
3083	126
3084	117
3085	122
3086	138
3087	162
3088	137
3089	125
3090	127
3091	133
3092	144
3093	124
3094	127
3095	129
3096	128
3097	137
3098	116
3099	140
3100	115
3101	131
3102	132
3103	137
3104	139
3105	116
3106	122
3107	115
3108	135
3109	124
3110	112
3111	145
3112	138
3113	137
3114	132
3115	125
3116	132
3117	127
3118	118
3119	133
3120	143
3121	123
3122	120
3123	117
3124	125
3125	134
3126	141
3127	131
3128	143
3129	149
3130	155
3131	157
3132	135
3133	139
3134	106
3135	114
3136	131
3137	146
3138	112
3139	127
3140	94
3141	147
3142	133
3143	122
3144	103
3145	131
3146	125
3147	112
3148	122
3149	124
3150	117
3151	129
3152	131
3153	130
3154	132
3155	123
3156	148
3157	131
3158	143
3159	116
3160	128
3161	133
3162	128
3163	132
3164	122
3165	122
3166	130
3167	146
3168	109
3169	137
3170	128
3171	106
3172	126
3173	135
3174	119
3175	133
3176	116
3177	119
3178	116
3179	144
3180	126
3181	136
3182	109
3183	117
3184	134
3185	120
3186	138
3187	144
3188	124
3189	139
3190	144
3191	139
3192	129
3193	138
3194	188
3195	182
3196	193
3197	223
3198	169
3199	159
3200	135
3201	109
3202	117
3203	125
3204	134
3205	124
3206	108
3207	120
3208	128
3209	142
3210	107
3211	117
3212	136
3213	109
3214	146
3215	133
3216	130
3217	130
3218	119
3219	119
3220	112
3221	128
3222	134
3223	129
3224	153
3225	136
3226	136
3227	131
3228	130
3229	147
3230	122
3231	131
3232	117
3233	114
3234	133
3235	137
3236	127
3237	132
3238	158
3239	113
3240	135
3241	109
3242	99
3243	122
3244	144
3245	138
3246	133
3247	124
3248	158
3249	153
3250	133
3251	135
3252	154
3253	134
3254	141
3255	136
3256	129
3257	124
3258	143
3259	127
3260	118
3261	130
3262	143
3263	120
3264	138
3265	136
3266	111
3267	115
3268	121
3269	130
3270	185
3271	295
3272	434
3273	702
3274	1022
3275	1112
3276	1018
3277	799
3278	511
3279	284
3280	199
3281	138
3282	114
3283	100
3284	114
3285	107
3286	117
3287	127
3288	115
3289	131
3290	112
3291	120
3292	135
3293	115
3294	109
3295	89
3296	124
3297	129
3298	128
3299	114
3300	118
3301	104
3302	110
3303	115
3304	101
3305	115
3306	109
3307	101
3308	117
3309	111
3310	117
3311	129
3312	131
3313	124
3314	154
3315	152
3316	146
3317	120
3318	139
3319	119
3320	119
3321	110
3322	110
3323	94
3324	128
3325	102
3326	97
3327	115
3328	92
3329	98
3330	120
3331	131
3332	99
3333	100
3334	107
3335	89
3336	109
3337	104
3338	130
3339	115
3340	100
3341	95
3342	108
3343	99
3344	100
3345	94
3346	91
3347	98
3348	87
3349	98
3350	113
3351	80
3352	113
3353	103
3354	112
3355	120
3356	98
3357	90
3358	96
3359	95
3360	110
3361	106
3362	75
3363	92
3364	104
3365	81
3366	80
3367	108
3368	110
3369	115
3370	109
3371	93
3372	99
3373	76
3374	109
3375	95
3376	90
3377	114
3378	99
3379	102
3380	95
3381	119
3382	118
3383	192
3384	231
3385	328
3386	299
3387	282
3388	225
3389	168
3390	137
3391	112
3392	90
3393	104
3394	97
3395	86
3396	127
3397	102
3398	101
3399	106
3400	81
3401	95
3402	87
3403	94
3404	89
3405	78
3406	80
3407	99
3408	105
3409	65
3410	99
3411	101
3412	90
3413	75
3414	100
3415	86
3416	103
3417	95
3418	89
3419	102
3420	84
3421	101
3422	82
3423	86
3424	85
3425	89
3426	84
3427	84
3428	101
3429	102
3430	88
3431	98
3432	75
3433	82
3434	90
3435	90
3436	79
3437	96
3438	91
3439	75
3440	79
3441	101
3442	104
3443	96
3444	111
3445	97
3446	110
3447	93
3448	99
3449	97
3450	90
3451	76
3452	87
3453	84
3454	75
3455	88
3456	98
3457	80
3458	96
3459	73
3460	91
3461	84
3462	82
3463	96
3464	75
3465	96
3466	87
3467	91
3468	86
3469	86
3470	91
3471	72
3472	91
3473	83
3474	83
3475	90
3476	95
3477	77
3478	105
3479	75
3480	78
3481	69
3482	98
3483	89
3484	77
3485	87
3486	83
3487	91
3488	67
3489	95
3490	72
3491	89
3492	78
3493	67
3494	94
3495	76
3496	84
3497	84
3498	78
3499	95
3500	81
3501	68
3502	77
3503	74
3504	79
3505	84
3506	76
3507	88
3508	74
3509	66
3510	86
3511	92
3512	78
3513	88
3514	78
3515	82
3516	73
3517	76
3518	95
3519	59
3520	73
3521	75
3522	101
3523	75
3524	95
3525	58
3526	88
3527	76
3528	80
3529	83
3530	85
3531	73
3532	77
3533	75
3534	75
3535	74
3536	79
3537	82
3538	64
3539	59
3540	77
3541	71
3542	76
3543	73
3544	81
3545	85
3546	79
3547	72
3548	68
3549	70
3550	71
3551	86
3552	73
3553	78
3554	78
3555	67
3556	90
3557	68
3558	79
3559	58
3560	85
3561	83
3562	57
3563	70
3564	65
3565	75
3566	80
3567	66
3568	82
3569	61
3570	65
3571	69
3572	80
3573	69
3574	72
3575	64
3576	82
3577	73
3578	76
3579	75
3580	67
3581	65
3582	75
3583	72
3584	76
3585	78
3586	72
3587	73
3588	81
3589	67
3590	62
3591	76
3592	54
3593	72
3594	73
3595	56
3596	59
3597	72
3598	61
3599	80
3600	63
3601	74
3602	72
3603	73
3604	83
3605	66
3606	66
3607	83
3608	63
3609	71
3610	66
3611	70
3612	83
3613	65
3614	81
3615	74
3616	64
3617	67
3618	65
3619	70
3620	68
3621	63
3622	82
3623	66
3624	61
3625	66
3626	65
3627	68
3628	68
3629	60
3630	71
3631	72
3632	130
3633	226
3634	417
3635	559
3636	729
3637	736
3638	597
3639	474
3640	279
3641	144
3642	90
3643	73
3644	63
3645	64
3646	68
3647	68
3648	60
3649	87
3650	70
3651	73
3652	65
3653	127
3654	125
3655	186
3656	181
3657	182
3658	160
3659	122
3660	117
3661	78
3662	91
3663	54
3664	65
3665	66
3666	61
3667	67
3668	53
3669	70
3670	61
3671	62
3672	64
3673	64
3674	85
3675	75
3676	71
3677	67
3678	58
3679	45
3680	88
3681	77
3682	63
3683	57
3684	61
3685	58
3686	52
3687	81
3688	69
3689	70
3690	67
3691	74
3692	67
3693	84
3694	94
3695	123
3696	178
3697	224
3698	246
3699	266
3700	225
3701	175
3702	120
3703	93
3704	79
3705	71
3706	57
3707	70
3708	54
3709	77
3710	90
3711	129
3712	180
3713	251
3714	356
3715	400
3716	412
3717	297
3718	212
3719	138
3720	89
3721	72
3722	72
3723	69
3724	58
3725	71
3726	63
3727	74
3728	59
3729	64
3730	71
3731	74
3732	82
3733	75
3734	57
3735	72
3736	82
3737	74
3738	56
3739	65
3740	70
3741	55
3742	57
3743	64
3744	70
3745	60
3746	66
3747	68
3748	73
3749	54
3750	67
3751	64
3752	69
3753	75
3754	51
3755	58
3756	67
3757	66
3758	62
3759	65
3760	72
3761	79
3762	69
3763	76
3764	73
3765	71
3766	56
3767	74
3768	56
3769	62
3770	75
3771	61
3772	60
3773	78
3774	84
3775	65
3776	67
3777	70
3778	63
3779	75
3780	78
3781	63
3782	62
3783	72
3784	79
3785	62
3786	62
3787	76
3788	76
3789	61
3790	65
3791	64
3792	56
3793	58
3794	71
3795	55
3796	58
3797	60
3798	62
3799	62
3800	48
3801	67
3802	55
3803	74
3804	49
3805	67
3806	68
3807	58
3808	53
3809	78
3810	67
3811	62
3812	72
3813	56
3814	75
3815	61
3816	64
3817	63
3818	50
3819	60
3820	64
3821	58
3822	71
3823	52
3824	67
3825	56
3826	74
3827	72
3828	60
3829	62
3830	80
3831	51
3832	65
3833	56
3834	58
3835	73
3836	64
3837	71
3838	61
3839	69
3840	53
3841	64
3842	74
3843	72
3844	75
3845	98
3846	150
3847	365
3848	826
3849	1694
3850	2775
3851	3742
3852	4177
3853	3780
3854	2905
3855	1782
3856	879
3857	407
3858	172
3859	87
3860	59
3861	59
3862	63
3863	70
3864	60
3865	56
3866	49
3867	69
3868	57
3869	61
3870	61
3871	53
3872	59
3873	47
3874	72
3875	62
3876	74
3877	62
3878	59
3879	53
3880	61
3881	45
3882	61
3883	53
3884	72
3885	57
3886	65
3887	51
3888	62
3889	48
3890	61
3891	63
3892	56
3893	72
3894	72
3895	74
3896	71
3897	50
3898	65
3899	58
3900	70
3901	62
3902	81
3903	54
3904	62
3905	62
3906	55
3907	68
3908	61
3909	57
3910	59
3911	56
3912	71
3913	66
3914	61
3915	71
3916	48
3917	74
3918	73
3919	66
3920	81
3921	71
3922	64
3923	77
3924	58
3925	53
3926	66
3927	56
3928	70
3929	56
3930	65
3931	59
3932	59
3933	48
3934	51
3935	57
3936	70
3937	49
3938	63
3939	71
3940	74
3941	74
3942	90
3943	82
3944	70
3945	80
3946	61
3947	61
3948	65
3949	61
3950	67
3951	62
3952	46
3953	65
3954	57
3955	75
3956	82
3957	65
3958	80
3959	73
3960	72
3961	72
3962	63
3963	69
3964	68
3965	66
3966	73
3967	66
3968	59
3969	44
3970	61
3971	77
3972	82
3973	88
3974	156
3975	218
3976	334
3977	365
3978	384
3979	294
3980	225
3981	149
3982	131
3983	69
3984	66
3985	77
3986	67
3987	81
3988	76
3989	57
3990	51
3991	77
3992	58
3993	65
3994	67
3995	68
3996	63
3997	78
3998	59
3999	62
4000	66
4001	50
4002	71
4003	60
4004	58
4005	51
4006	70
4007	50
4008	79
4009	64
4010	67
4011	57
4012	58
4013	48
4014	49
4015	65
4016	67
4017	52
4018	59
4019	62
4020	60
4021	58
4022	64
4023	60
4024	62
4025	62
4026	51
4027	63
4028	61
4029	60
4030	73
4031	71
4032	41
4033	70
4034	63
4035	60
4036	76
4037	53
4038	53
4039	60
4040	67
4041	69
4042	53
4043	52
4044	57
4045	51
4046	65
4047	70
4048	72
4049	61
4050	63
4051	97
4052	88
4053	115
4054	111
4055	100
4056	105
4057	77
4058	68
4059	53
4060	71
4061	52
4062	76
4063	69
4064	103
4065	112
4066	87
4067	97
4068	79
4069	80
4070	66
4071	62
4072	47
4073	49
4074	38
4075	47
4076	65
4077	47
4078	50
4079	42
4080	67
4081	45
4082	54
4083	55
4084	44
4085	49
4086	54
4087	50
4088	61
4089	45
4090	50
4091	49
4092	48
4093	62
4094	49
4095	53
4096	38
4097	51
4098	44
4099	55
4100	48
4101	52
4102	41
4103	53
4104	44
4105	59
4106	50
4107	43
4108	44
4109	57
4110	42
4111	45
4112	39
4113	41
4114	38
4115	38
4116	47
4117	52
4118	48
4119	44
4120	49
4121	47
4122	48
4123	44
4124	30
4125	49
4126	53
4127	36
4128	43
4129	39
4130	34
4131	38
4132	40
4133	48
4134	32
4135	57
4136	48
4137	37
4138	44
4139	46
4140	41
4141	52
4142	46
4143	46
4144	44
4145	46
4146	36
4147	45
4148	45
4149	52
4150	39
4151	38
4152	38
4153	48
4154	37
4155	45
4156	35
4157	48
4158	36
4159	32
4160	57
4161	50
4162	54
4163	61
4164	59
4165	62
4166	80
4167	106
4168	130
4169	126
4170	141
4171	117
4172	85
4173	74
4174	65
4175	57
4176	45
4177	48
4178	59
4179	55
4180	81
4181	95
4182	108
4183	91
4184	79
4185	61
4186	54
4187	55
4188	47
4189	55
4190	49
4191	69
4192	74
4193	85
4194	74
4195	87
4196	71
4197	82
4198	63
4199	65
4200	71
4201	57
4202	51
4203	51
4204	47
4205	45
4206	41
4207	63
4208	67
4209	61
4210	80
4211	70
4212	72
4213	74
4214	67
4215	59
4216	46
4217	48
4218	48
4219	36
4220	32
4221	43
4222	52
4223	38
4224	49
4225	39
4226	38
4227	49
4228	49
4229	32
4230	43
4231	43
4232	40
4233	37
4234	42
4235	42
4236	41
4237	36
4238	40
4239	30
4240	49
4241	38
4242	45
4243	43
4244	36
4245	40
4246	41
4247	44
4248	35
4249	27
4250	38
4251	33
4252	42
4253	38
4254	42
4255	44
4256	38
4257	40
4258	34
4259	38
4260	33
4261	35
4262	52
4263	48
4264	52
4265	73
4266	70
4267	64
4268	54
4269	54
4270	43
4271	42
4272	32
4273	40
4274	33
4275	38
4276	34
4277	50
4278	54
4279	35
4280	35
4281	33
4282	33
4283	28
4284	30
4285	33
4286	37
4287	27
4288	47
4289	47
4290	50
4291	48
4292	63
4293	72
4294	59
4295	44
4296	45
4297	29
4298	46
4299	31
4300	31
4301	26
4302	36
4303	28
4304	26
4305	44
4306	30
4307	35
4308	54
4309	40
4310	44
4311	45
4312	37
4313	46
4314	39
4315	43
4316	32
4317	37
4318	27
4319	27
4320	30
4321	28
4322	25
4323	41
4324	22
4325	33
4326	23
4327	26
4328	26
4329	33
4330	33
4331	30
4332	40
4333	35
4334	35
4335	29
4336	21
4337	25
4338	31
4339	40
4340	32
4341	18
4342	22
4343	26
4344	24
4345	27
4346	23
4347	27
4348	25
4349	25
4350	26
4351	40
4352	28
4353	39
4354	24
4355	31
4356	32
4357	31
4358	35
4359	36
4360	34
4361	30
4362	33
4363	33
4364	33
4365	41
4366	43
4367	48
4368	74
4369	120
4370	128
4371	157
4372	155
4373	136
4374	98
4375	65
4376	48
4377	34
4378	32
4379	29
4380	29
4381	43
4382	25
4383	27
4384	33
4385	40
4386	27
4387	31
4388	23
4389	17
4390	26
4391	28
4392	28
4393	17
4394	43
4395	28
4396	22
4397	25
4398	30
4399	26
4400	23
4401	32
4402	27
4403	26
4404	19
4405	29
4406	25
4407	27
4408	21
4409	35
4410	32
4411	28
4412	30
4413	14
4414	24
4415	21
4416	27
4417	30
4418	23
4419	22
4420	34
4421	21
4422	21
4423	23
4424	20
4425	24
4426	26
4427	30
4428	42
4429	38
4430	41
4431	53
4432	44
4433	35
4434	38
4435	29
4436	24
4437	20
4438	25
4439	27
4440	32
4441	33
4442	21
4443	23
4444	31
4445	33
4446	32
4447	31
4448	26
4449	40
4450	45
4451	36
4452	47
4453	61
4454	54
4455	42
4456	37
4457	49
4458	38
4459	40
4460	33
4461	28
4462	37
4463	25
4464	24
4465	18
4466	33
4467	22
4468	34
4469	22
4470	25
4471	20
4472	20
4473	24
4474	29
4475	25
4476	35
4477	18
4478	35
4479	23
4480	27
4481	21
4482	28
4483	32
4484	28
4485	29
4486	35
4487	25
4488	36
4489	22
4490	25
4491	25
4492	26
4493	26
4494	22
4495	15
4496	21
4497	25
4498	24
4499	24
4500	36
4501	23
4502	22
4503	27
4504	19
4505	23
4506	22
4507	26
4508	29
4509	31
4510	30
4511	24
4512	21
4513	31
4514	23
4515	30
4516	17
4517	18
4518	27
4519	21
4520	26
4521	26
4522	27
4523	22
4524	30
4525	27
4526	27
4527	26
4528	34
4529	34
4530	25
4531	22
4532	22
4533	24
4534	29
4535	11
4536	19
4537	23
4538	30
4539	24
4540	21
4541	18
4542	37
4543	51
4544	99
4545	159
4546	221
4547	334
4548	423
4549	476
4550	352
4551	272
4552	183
4553	118
4554	48
4555	31
4556	31
4557	25
4558	15
4559	32
4560	26
4561	25
4562	26
4563	28
4564	19
4565	16
4566	20
4567	27
4568	15
4569	26
4570	25
4571	26
4572	19
4573	24
4574	23
4575	24
4576	17
4577	21
4578	31
4579	27
4580	28
4581	22
4582	21
4583	34
4584	23
4585	22
4586	22
4587	24
4588	24
4589	24
4590	23
4591	19
4592	33
4593	23
4594	22
4595	25
4596	27
4597	26
4598	19
4599	23
4600	16
4601	26
4602	16
4603	27
4604	21
4605	25
4606	18
4607	29
4608	23
4609	25
4610	23
4611	20
4612	27
4613	22
4614	19
4615	19
4616	27
4617	26
4618	18
4619	26
4620	14
4621	22
4622	20
4623	43
4624	18
4625	15
4626	28
4627	20
4628	19
4629	19
4630	25
4631	27
4632	57
4633	77
4634	208
4635	445
4636	805
4637	1247
4638	1767
4639	1940
4640	1822
4641	1523
4642	1010
4643	570
4644	253
4645	99
4646	46
4647	31
4648	27
4649	29
4650	22
4651	13
4652	34
4653	26
4654	15
4655	15
4656	17
4657	22
4658	26
4659	27
4660	14
4661	10
4662	20
4663	17
4664	21
4665	27
4666	16
4667	18
4668	22
4669	19
4670	15
4671	18
4672	20
4673	22
4674	13
4675	25
4676	30
4677	24
4678	22
4679	19
4680	20
4681	15
4682	23
4683	26
4684	12
4685	18
4686	23
4687	22
4688	23
4689	22
4690	26
4691	23
4692	21
4693	23
4694	19
4695	21
4696	28
4697	18
4698	19
4699	16
4700	18
4701	25
4702	14
4703	21
4704	17
4705	15
4706	15
4707	24
4708	22
4709	17
4710	22
4711	20
4712	19
4713	12
4714	25
4715	24
4716	30
4717	20
4718	18
4719	17
4720	25
4721	19
4722	15
4723	21
4724	18
4725	14
4726	26
4727	21
4728	20
4729	20
4730	16
4731	22
4732	20
4733	21
4734	17
4735	21
4736	21
4737	18
4738	27
4739	20
4740	13
4741	25
4742	24
4743	23
4744	24
4745	30
4746	22
4747	17
4748	19
4749	20
4750	14
4751	17
4752	16
4753	20
4754	16
4755	19
4756	18
4757	21
4758	18
4759	15
4760	26
4761	22
4762	18
4763	18
4764	23
4765	16
4766	30
4767	20
4768	24
4769	16
4770	24
4771	21
4772	20
4773	27
4774	22
4775	22
4776	21
4777	20
4778	21
4779	18
4780	17
4781	27
4782	26
4783	19
4784	19
4785	33
4786	15
4787	21
4788	24
4789	24
4790	22
4791	28
4792	26
4793	25
4794	17
4795	19
4796	14
4797	28
4798	18
4799	16
4800	20
4801	12
4802	18
4803	20
4804	25
4805	13
4806	20
4807	14
4808	19
4809	19
4810	28
4811	29
4812	24
4813	22
4814	23
4815	16
4816	23
4817	18
4818	16
4819	11
4820	18
4821	23
4822	21
4823	17
4824	17
4825	19
4826	29
4827	31
4828	38
4829	46
4830	53
4831	64
4832	46
4833	44
4834	33
4835	26
4836	27
4837	25
4838	15
4839	22
4840	14
4841	20
4842	27
4843	18
4844	27
4845	26
4846	19
4847	24
4848	35
4849	47
4850	62
4851	118
4852	183
4853	226
4854	258
4855	295
4856	216
4857	139
4858	77
4859	59
4860	32
4861	24
4862	27
4863	23
4864	19
4865	21
4866	21
4867	21
4868	20
4869	12
4870	24
4871	16
4872	37
4873	21
4874	22
4875	20
4876	19
4877	22
4878	25
4879	24
4880	22
4881	18
4882	19
4883	19
4884	15
4885	16
4886	23
4887	17
4888	19
4889	16
4890	19
4891	30
4892	13
4893	13
4894	16
4895	26
4896	15
4897	20
4898	25
4899	16
4900	20
4901	16
4902	8
4903	19
4904	22
4905	17
4906	18
4907	16
4908	19
4909	22
4910	13
4911	27
4912	23
4913	23
4914	19
4915	14
4916	22
4917	37
4918	33
4919	42
4920	46
4921	39
4922	42
4923	33
4924	31
4925	23
4926	21
4927	22
4928	26
4929	17
4930	17
4931	20
4932	31
4933	20
4934	20
4935	22
4936	19
4937	17
4938	20
4939	22
4940	19
4941	15
4942	16
4943	21
4944	22
4945	26
4946	20
4947	14
4948	25
4949	12
4950	21
4951	17
4952	17
4953	14
4954	22
4955	23
4956	21
4957	25
4958	34
4959	21
4960	19
4961	22
4962	16
4963	27
4964	31
4965	29
4966	36
4967	30
4968	21
4969	27
4970	23
4971	18
4972	17
4973	23
4974	31
4975	28
4976	23
4977	21
4978	32
4979	40
4980	35
4981	41
4982	35
4983	24
4984	23
4985	19
4986	25
4987	28
4988	24
4989	28
4990	23
4991	24
4992	32
4993	13
4994	24
4995	23
4996	17
4997	23
4998	8
4999	18
5000	16
5001	22
5002	15
5003	16
5004	20
5005	19
5006	20
5007	25
5008	21
5009	29
5010	15
5011	19
5012	24
5013	24
5014	21
5015	18
5016	19
5017	19
5018	27
5019	24
5020	25
5021	23
5022	20
5023	22
5024	26
5025	23
5026	21
5027	30
5028	19
5029	14
5030	19
5031	21
5032	13
5033	12
5034	24
5035	29
5036	17
5037	17
5038	6
5039	24
5040	18
5041	17
5042	18
5043	16
5044	23
5045	22
5046	23
5047	12
5048	22
5049	18
5050	15
5051	21
5052	26
5053	17
5054	12
5055	21
5056	12
5057	20
5058	20
5059	24
5060	19
5061	21
5062	22
5063	25
5064	18
5065	21
5066	15
5067	21
5068	10
5069	16
5070	26
5071	23
5072	16
5073	32
5074	25
5075	18
5076	15
5077	16
5078	23
5079	12
5080	28
5081	24
5082	18
5083	31
5084	43
5085	30
5086	28
5087	25
5088	37
5089	26
5090	24
5091	23
5092	29
5093	24
5094	18
5095	24
5096	18
5097	19
5098	24
5099	26
5100	25
5101	14
5102	17
5103	19
5104	16
5105	13
5106	18
5107	22
5108	17
5109	18
5110	20
5111	18
5112	15
5113	15
5114	16
5115	16
5116	21
5117	25
5118	24
5119	19
5120	17
5121	21
5122	25
5123	20
5124	20
5125	25
5126	21
5127	21
5128	21
5129	21
5130	19
5131	22
5132	24
5133	16
5134	22
5135	21
5136	27
5137	18
5138	25
5139	14
5140	18
5141	16
5142	27
5143	13
5144	37
5145	18
5146	19
5147	17
5148	26
5149	17
5150	17
5151	21
5152	10
5153	23
5154	18
5155	16
5156	28
5157	24
5158	11
5159	29
5160	16
5161	20
5162	22
5163	23
5164	23
5165	21
5166	18
5167	21
5168	21
5169	16
5170	24
5171	20
5172	21
5173	18
5174	17
5175	16
5176	18
5177	18
5178	18
5179	31
5180	17
5181	19
5182	18
5183	20
5184	18
5185	30
5186	14
5187	18
5188	25
5189	12
5190	25
5191	21
5192	23
5193	14
5194	15
5195	18
5196	14
5197	17
5198	26
5199	17
5200	18
5201	16
5202	19
5203	23
5204	16
5205	22
5206	12
5207	23
5208	17
5209	23
5210	17
5211	24
5212	14
5213	21
5214	12
5215	12
5216	9
5217	21
5218	13
5219	14
5220	16
5221	19
5222	17
5223	16
5224	17
5225	22
5226	19
5227	22
5228	18
5229	13
5230	16
5231	17
5232	14
5233	15
5234	13
5235	15
5236	20
5237	28
5238	19
5239	14
5240	13
5241	15
5242	23
5243	20
5244	22
5245	12
5246	19
5247	10
5248	16
5249	16
5250	18
5251	15
5252	16
5253	16
5254	16
5255	21
5256	17
5257	16
5258	11
5259	18
5260	25
5261	22
5262	12
5263	21
5264	18
5265	9
5266	17
5267	13
5268	24
5269	13
5270	12
5271	18
5272	13
5273	12
5274	23
5275	23
5276	18
5277	23
5278	23
5279	24
5280	23
5281	15
5282	20
5283	14
5284	14
5285	21
5286	13
5287	14
5288	12
5289	23
5290	18
5291	13
5292	20
5293	29
5294	26
5295	26
5296	19
5297	11
5298	26
5299	19
5300	15
5301	15
5302	20
5303	18
5304	19
5305	17
5306	16
5307	14
5308	18
5309	22
5310	13
5311	15
5312	17
5313	13
5314	14
5315	15
5316	8
5317	14
5318	16
5319	15
5320	15
5321	15
5322	19
5323	15
5324	21
5325	12
5326	10
5327	14
5328	13
5329	16
5330	16
5331	14
5332	22
5333	15
5334	14
5335	14
5336	13
5337	16
5338	12
5339	13
5340	9
5341	16
5342	12
5343	18
5344	18
5345	20
5346	8
5347	8
5348	14
5349	12
5350	15
5351	12
5352	7
5353	15
5354	13
5355	17
5356	15
5357	16
5358	17
5359	18
5360	15
5361	15
5362	12
5363	19
5364	13
5365	12
5366	13
5367	14
5368	12
5369	21
5370	15
5371	11
5372	12
5373	10
5374	14
5375	9
5376	14
5377	16
5378	8
5379	16
5380	15
5381	22
5382	13
5383	21
5384	11
5385	21
5386	27
5387	19
5388	11
5389	14
5390	11
5391	16
5392	14
5393	14
5394	21
5395	20
5396	10
5397	14
5398	12
5399	11
5400	12
5401	17
5402	14
5403	11
5404	16
5405	8
5406	14
5407	14
5408	12
5409	16
5410	15
5411	15
5412	18
5413	9
5414	8
5415	13
5416	14
5417	14
5418	8
5419	10
5420	6
5421	12
5422	17
5423	15
5424	14
5425	10
5426	11
5427	20
5428	8
5429	10
5430	10
5431	9
5432	9
5433	14
5434	16
5435	6
5436	15
5437	13
5438	15
5439	7
5440	16
5441	14
5442	8
5443	14
5444	18
5445	11
5446	16
5447	13
5448	12
5449	8
5450	5
5451	14
5452	11
5453	17
5454	11
5455	15
5456	9
5457	11
5458	11
5459	10
5460	11
5461	19
5462	18
5463	11
5464	12
5465	14
5466	13
5467	15
5468	13
5469	17
5470	15
5471	17
5472	14
5473	15
5474	13
5475	18
5476	8
5477	18
5478	18
5479	14
5480	21
5481	15
5482	10
5483	20
5484	14
5485	19
5486	12
5487	16
5488	11
5489	16
5490	14
5491	16
5492	15
5493	14
5494	9
5495	12
5496	14
5497	13
5498	11
5499	14
5500	8
5501	9
5502	11
5503	15
5504	15
5505	6
5506	16
5507	12
5508	8
5509	19
5510	13
5511	16
5512	18
5513	24
5514	24
5515	51
5516	47
5517	49
5518	56
5519	64
5520	48
5521	38
5522	30
5523	18
5524	20
5525	15
5526	18
5527	12
5528	13
5529	15
5530	14
5531	10
5532	22
5533	14
5534	16
5535	21
5536	18
5537	12
5538	18
5539	15
5540	14
5541	14
5542	15
5543	7
5544	10
5545	10
5546	15
5547	11
5548	15
5549	17
5550	14
5551	12
5552	29
5553	44
5554	96
5555	112
5556	128
5557	142
5558	123
5559	101
5560	71
5561	38
5562	43
5563	17
5564	17
5565	16
5566	13
5567	18
5568	19
5569	10
5570	6
5571	15
5572	26
5573	20
5574	9
5575	9
5576	11
5577	8
5578	17
5579	12
5580	7
5581	12
5582	15
5583	17
5584	14
5585	15
5586	8
5587	16
5588	15
5589	11
5590	9
5591	12
5592	11
5593	11
5594	8
5595	13
5596	7
5597	11
5598	12
5599	12
5600	12
5601	13
5602	13
5603	9
5604	6
5605	10
5606	7
5607	14
5608	11
5609	19
5610	10
5611	10
5612	22
5613	6
5614	13
5615	12
5616	14
5617	7
5618	7
5619	14
5620	13
5621	17
5622	8
5623	11
5624	10
5625	11
5626	13
5627	10
5628	14
5629	14
5630	11
5631	8
5632	20
5633	14
5634	15
5635	12
5636	14
5637	8
5638	5
5639	14
5640	12
5641	11
5642	14
5643	15
5644	12
5645	9
5646	6
5647	9
5648	8
5649	11
5650	15
5651	15
5652	12
5653	14
5654	8
5655	11
5656	7
5657	15
5658	13
5659	12
5660	10
5661	7
5662	11
5663	22
5664	13
5665	12
5666	11
5667	6
5668	11
5669	15
5670	12
5671	5
5672	9
5673	14
5674	16
5675	14
5676	7
5677	19
5678	14
5679	15
5680	5
5681	15
5682	14
5683	12
5684	15
5685	10
5686	9
5687	13
5688	14
5689	9
5690	11
5691	9
5692	9
5693	11
5694	15
5695	16
5696	10
5697	12
5698	16
5699	13
5700	14
5701	12
5702	15
5703	16
5704	15
5705	15
5706	22
5707	18
5708	12
5709	16
5710	15
5711	12
5712	10
5713	12
5714	14
5715	11
5716	14
5717	17
5718	15
5719	16
5720	12
5721	16
5722	10
5723	15
5724	11
5725	16
5726	10
5727	5
5728	14
5729	6
5730	12
5731	9
5732	17
5733	9
5734	12
5735	16
5736	15
5737	10
5738	10
5739	13
5740	13
5741	11
5742	11
5743	17
5744	10
5745	14
5746	17
5747	19
5748	17
5749	15
5750	20
5751	25
5752	17
5753	10
5754	20
5755	9
5756	14
5757	13
5758	10
5759	7
5760	15
5761	19
5762	13
5763	7
5764	13
5765	9
5766	12
5767	6
5768	11
5769	11
5770	13
5771	17
5772	28
5773	55
5774	91
5775	190
5776	279
5777	397
5778	475
5779	510
5780	451
5781	324
5782	233
5783	129
5784	51
5785	33
5786	21
5787	11
5788	15
5789	14
5790	10
5791	9
5792	19
5793	10
5794	12
5795	10
5796	12
5797	10
5798	9
5799	8
5800	9
5801	12
5802	3
5803	17
5804	10
5805	12
5806	10
5807	7
5808	12
5809	9
5810	15
5811	13
5812	8
5813	11
5814	17
5815	16
5816	15
5817	17
5818	14
5819	8
5820	5
5821	11
5822	7
5823	6
5824	3
5825	11
5826	7
5827	15
5828	14
5829	13
5830	9
5831	16
5832	12
5833	14
5834	10
5835	7
5836	15
5837	9
5838	14
5839	11
5840	8
5841	13
5842	8
5843	14
5844	8
5845	8
5846	15
5847	9
5848	6
5849	9
5850	10
5851	12
5852	11
5853	5
5854	11
5855	15
5856	20
5857	9
5858	10
5859	9
5860	10
5861	11
5862	12
5863	14
5864	15
5865	9
5866	6
5867	5
5868	12
5869	9
5870	4
5871	14
5872	9
5873	17
5874	12
5875	8
5876	14
5877	15
5878	10
5879	6
5880	10
5881	12
5882	7
5883	11
5884	11
5885	15
5886	12
5887	8
5888	10
5889	16
5890	11
5891	13
5892	10
5893	13
5894	12
5895	11
5896	11
5897	11
5898	12
5899	6
5900	11
5901	8
5902	7
5903	11
5904	9
5905	7
5906	16
5907	9
5908	14
5909	7
5910	6
5911	11
5912	6
5913	13
5914	10
5915	8
5916	11
5917	7
5918	7
5919	11
5920	13
5921	16
5922	14
5923	15
5924	15
5925	12
5926	13
5927	10
5928	10
5929	7
5930	7
5931	13
5932	7
5933	5
5934	17
5935	15
5936	11
5937	14
5938	17
5939	19
5940	10
5941	20
5942	10
5943	11
5944	12
5945	14
5946	10
5947	7
5948	13
5949	15
5950	9
5951	9
5952	13
5953	9
5954	15
5955	9
5956	14
5957	11
5958	9
5959	17
5960	17
5961	9
5962	10
5963	11
5964	1
5965	14
5966	12
5967	13
5968	7
5969	12
5970	12
5971	14
5972	7
5973	7
5974	10
5975	9
5976	4
5977	9
5978	9
5979	12
5980	5
5981	9
5982	6
5983	9
5984	10
5985	12
5986	5
5987	7
5988	10
5989	9
5990	13
5991	15
5992	10
5993	6
5994	12
5995	7
5996	10
5997	7
5998	10
5999	10
6000	11
6001	12
6002	11
6003	7
6004	14
6005	17
6006	16
6007	27
6008	27
6009	44
6010	41
6011	40
6012	39
6013	35
6014	18
6015	17
6016	16
6017	9
6018	17
6019	12
6020	12
6021	6
6022	12
6023	10
6024	15
6025	10
6026	12
6027	5
6028	11
6029	7
6030	8
6031	13
6032	13
6033	13
6034	9
6035	11
6036	10
6037	7
6038	12
6039	4
6040	14
6041	8
6042	11
6043	11
6044	9
6045	17
6046	5
6047	8
6048	13
6049	14
6050	8
6051	8
6052	4
6053	20
6054	9
6055	15
6056	23
6057	11
6058	9
6059	20
6060	9
6061	10
6062	10
6063	14
6064	12
6065	10
6066	15
6067	13
6068	14
6069	9
6070	8
6071	9
6072	10
6073	12
6074	7
6075	9
6076	8
6077	10
6078	8
6079	18
6080	12
6081	17
6082	4
6083	11
6084	9
6085	13
6086	17
6087	12
6088	11
6089	11
6090	7
6091	9
6092	10
6093	10
6094	13
6095	16
6096	7
6097	18
6098	9
6099	8
6100	14
6101	12
6102	13
6103	13
6104	13
6105	16
6106	11
6107	16
6108	8
6109	13
6110	24
6111	9
6112	19
6113	18
6114	12
6115	7
6116	15
6117	16
6118	7
6119	6
6120	7
6121	11
6122	14
6123	10
6124	9
6125	11
6126	14
6127	13
6128	6
6129	9
6130	8
6131	13
6132	4
6133	9
6134	5
6135	8
6136	11
6137	6
6138	8
6139	12
6140	11
6141	18
6142	10
6143	12
6144	14
6145	15
6146	12
6147	4
6148	14
6149	9
6150	11
6151	9
6152	7
6153	11
6154	11
6155	10
6156	13
6157	10
6158	12
6159	12
6160	13
6161	14
6162	15
6163	9
6164	9
6165	10
6166	12
6167	12
6168	6
6169	11
6170	14
6171	18
6172	9
6173	14
6174	10
6175	13
6176	9
6177	18
6178	20
6179	10
6180	7
6181	15
6182	5
6183	14
6184	7
6185	5
6186	6
6187	9
6188	14
6189	16
6190	10
6191	9
6192	7
6193	14
6194	10
6195	11
6196	11
6197	14
6198	14
6199	17
6200	11
6201	8
6202	8
6203	10
6204	16
6205	11
6206	12
6207	16
6208	15
6209	14
6210	9
6211	14
6212	20
6213	15
6214	9
6215	7
6216	7
6217	12
6218	12
6219	11
6220	16
6221	16
6222	8
6223	19
6224	10
6225	10
6226	7
6227	10
6228	8
6229	13
6230	16
6231	10
6232	5
6233	7
6234	11
6235	7
6236	7
6237	16
6238	7
6239	8
6240	15
6241	7
6242	6
6243	14
6244	7
6245	6
6246	10
6247	8
6248	8
6249	9
6250	18
6251	10
6252	10
6253	8
6254	13
6255	8
6256	5
6257	5
6258	9
6259	4
6260	13
6261	9
6262	4
6263	4
6264	12
6265	6
6266	7
6267	14
6268	9
6269	7
6270	6
6271	9
6272	9
6273	10
6274	9
6275	9
6276	11
6277	8
6278	7
6279	9
6280	7
6281	8
6282	8
6283	4
6284	14
6285	10
6286	13
6287	6
6288	12
6289	5
6290	9
6291	6
6292	9
6293	5
6294	8
6295	8
6296	13
6297	2
6298	8
6299	7
6300	3
6301	8
6302	7
6303	7
6304	5
6305	5
6306	10
6307	10
6308	10
6309	6
6310	14
6311	7
6312	6
6313	9
6314	7
6315	11
6316	5
6317	6
6318	6
6319	12
6320	11
6321	11
6322	3
6323	9
6324	8
6325	12
6326	11
6327	8
6328	10
6329	11
6330	7
6331	6
6332	10
6333	5
6334	5
6335	8
6336	3
6337	11
6338	6
6339	3
6340	4
6341	7
6342	7
6343	8
6344	10
6345	7
6346	6
6347	7
6348	11
6349	10
6350	5
6351	15
6352	10
6353	5
6354	11
6355	6
6356	7
6357	3
6358	7
6359	6
6360	12
6361	7
6362	7
6363	4
6364	6
6365	11
6366	2
6367	7
6368	6
6369	9
6370	6
6371	5
6372	4
6373	10
6374	5
6375	3
6376	13
6377	10
6378	10
6379	8
6380	8
6381	11
6382	9
6383	12
6384	5
6385	7
6386	6
6387	8
6388	8
6389	4
6390	5
6391	8
6392	5
6393	10
6394	11
6395	8
6396	4
6397	13
6398	15
6399	6
6400	5
6401	10
6402	8
6403	6
6404	23
6405	35
6406	57
6407	101
6408	115
6409	128
6410	136
6411	117
6412	102
6413	90
6414	49
6415	31
6416	11
6417	9
6418	9
6419	6
6420	6
6421	6
6422	10
6423	6
6424	3
6425	9
6426	10
6427	1
6428	11
6429	8
6430	6
6431	4
6432	9
6433	8
6434	8
6435	9
6436	8
6437	7
6438	2
6439	8
6440	6
6441	5
6442	6
6443	11
6444	3
6445	6
6446	6
6447	7
6448	4
6449	8
6450	9
6451	6
6452	5
6453	11
6454	6
6455	12
6456	6
6457	9
6458	3
6459	10
6460	12
6461	11
6462	6
6463	6
6464	9
6465	2
6466	5
6467	12
6468	6
6469	5
6470	3
6471	7
6472	7
6473	4
6474	5
6475	3
6476	5
6477	4
6478	4
6479	8
6480	6
6481	6
6482	1
6483	5
6484	3
6485	7
6486	8
6487	6
6488	1
6489	5
6490	8
6491	2
6492	7
6493	10
6494	3
6495	10
6496	2
6497	10
6498	6
6499	5
6500	9
6501	8
6502	4
6503	3
6504	5
6505	1
6506	3
6507	5
6508	4
6509	5
6510	4
6511	5
6512	5
6513	4
6514	5
6515	2
6516	4
6517	5
6518	7
6519	3
6520	2
6521	7
6522	7
6523	2
6524	9
6525	6
6526	1
6527	10
6528	8
6529	1
6530	2
6531	11
6532	3
6533	7
6534	2
6535	4
6536	2
6537	4
6538	3
6539	4
6540	5
6541	6
6542	11
6543	1
6544	8
6545	8
6546	7
6547	2
6548	5
6549	7
6550	7
6551	6
6552	3
6553	6
6554	5
6555	7
6556	4
6557	8
6558	3
6559	10
6560	7
6561	10
6562	7
6563	2
6564	5
6565	6
6566	1
6567	4
6568	8
6569	4
6570	3
6571	9
6572	6
6573	5
6574	6
6575	3
6576	4
6577	1
6578	2
6579	3
6580	4
6581	3
6582	5
6583	3
6584	7
6585	3
6586	2
6587	4
6588	5
6589	5
6590	5
6591	4
6592	2
6593	1
6594	4
6595	3
6596	2
6597	6
6598	1
6599	4
6600	2
6601	3
6602	4
6603	3
6604	7
6605	4
6606	2
6607	2
6608	3
6609	3
6610	3
6611	2
6612	3
6613	4
6614	6
6615	6
6616	7
6617	4
6618	6
6619	1
6620	4
6621	2
6622	6
6623	4
6624	1
6625	0
6626	4
6627	7
6628	3
6629	8
6630	1
6631	2
6632	3
6633	2
6634	3
6635	4
6636	3
6637	2
6638	0
6639	1
6640	2
6641	6
6642	1
6643	6
6644	4
6645	3
6646	4
6647	4
6648	2
6649	3
6650	1
6651	2
6652	5
6653	3
6654	5
6655	2
6656	7
6657	6
6658	6
6659	4
6660	2
6661	4
6662	4
6663	5
6664	7
6665	8
6666	6
6667	3
6668	7
6669	0
6670	4
6671	4
6672	3
6673	1
6674	4
6675	1
6676	3
6677	1
6678	1
6679	2
6680	6
6681	5
6682	5
6683	3
6684	1
6685	0
6686	4
6687	2
6688	3
6689	2
6690	1
6691	7
6692	5
6693	6
6694	5
6695	4
6696	5
6697	3
6698	4
6699	4
6700	5
6701	5
6702	3
6703	1
6704	1
6705	4
6706	4
6707	2
6708	2
6709	5
6710	5
6711	1
6712	1
6713	6
6714	4
6715	5
6716	4
6717	1
6718	2
6719	3
6720	6
6721	5
6722	3
6723	6
6724	6
6725	1
6726	6
6727	7
6728	6
6729	2
6730	3
6731	2
6732	4
6733	6
6734	5
6735	4
6736	5
6737	6
6738	6
6739	1
6740	2
6741	4
6742	5
6743	5
6744	6
6745	5
6746	1
6747	6
6748	3
6749	3
6750	3
6751	1
6752	3
6753	0
6754	8
6755	2
6756	4
6757	3
6758	6
6759	3
6760	4
6761	4
6762	3
6763	3
6764	5
6765	4
6766	8
6767	2
6768	3
6769	6
6770	5
6771	1
6772	2
6773	4
6774	5
6775	4
6776	3
6777	4
6778	1
6779	4
6780	6
6781	3
6782	3
6783	5
6784	2
6785	2
6786	3
6787	6
6788	0
6789	3
6790	3
6791	3
6792	2
6793	5
6794	5
6795	4
6796	4
6797	3
6798	2
6799	4
6800	7
6801	5
6802	5
6803	7
6804	2
6805	4
6806	3
6807	3
6808	4
6809	10
6810	2
6811	4
6812	2
6813	1
6814	3
6815	3
6816	7
6817	5
6818	2
6819	4
6820	2
6821	1
6822	2
6823	6
6824	7
6825	2
6826	2
6827	6
6828	4
6829	3
6830	4
6831	4
6832	5
6833	6
6834	8
6835	12
6836	19
6837	61
6838	98
6839	199
6840	243
6841	335
6842	394
6843	432
6844	341
6845	288
6846	189
6847	124
6848	69
6849	46
6850	17
6851	11
6852	3
6853	3
6854	2
6855	1
6856	2
6857	3
6858	2
6859	5
6860	4
6861	3
6862	2
6863	1
6864	1
6865	5
6866	5
6867	4
6868	2
6869	1
6870	4
6871	4
6872	5
6873	4
6874	2
6875	4
6876	0
6877	5
6878	0
6879	2
6880	3
6881	1
6882	2
6883	2
6884	4
6885	1
6886	2
6887	5
6888	3
6889	2
6890	6
6891	2
6892	4
6893	2
6894	2
6895	3
6896	2
6897	4
6898	5
6899	2
6900	3
6901	2
6902	2
6903	2
6904	1
6905	5
6906	3
6907	1
6908	5
6909	4
6910	3
6911	2
6912	4
6913	0
6914	1
6915	3
6916	1
6917	6
6918	2
6919	1
6920	7
6921	3
6922	2
6923	2
6924	1
6925	3
6926	6
6927	4
6928	2
6929	2
6930	5
6931	4
6932	0
6933	3
6934	4
6935	1
6936	4
6937	2
6938	1
6939	1
6940	2
6941	3
6942	3
6943	2
6944	3
6945	4
6946	2
6947	2
6948	2
6949	2
6950	3
6951	1
6952	5
6953	2
6954	4
6955	4
6956	1
6957	1
6958	4
6959	0
6960	3
6961	2
6962	0
6963	0
6964	0
6965	2
6966	1
6967	1
6968	4
6969	2
6970	5
6971	2
6972	2
6973	1
6974	4
6975	3
6976	6
6977	2
6978	2
6979	4
6980	4
6981	2
6982	5
6983	2
6984	1
6985	5
6986	2
6987	5
6988	3
6989	1
6990	5
6991	5
6992	4
6993	3
6994	5
6995	3
6996	6
6997	4
6998	4
6999	2
7000	0
7001	1
7002	2
7003	0
7004	4
7005	1
7006	4
7007	4
7008	1
7009	5
7010	4
7011	1
7012	3
7013	1
7014	6
7015	2
7016	1
7017	0
7018	2
7019	3
7020	0
7021	2
7022	1
7023	5
7024	1
7025	6
7026	6
7027	3
7028	2
7029	0
7030	1
7031	4
7032	2
7033	3
7034	1
7035	1
7036	1
7037	3
7038	4
7039	2
7040	5
7041	4
7042	2
7043	2
7044	4
7045	5
7046	6
7047	3
7048	6
7049	2
7050	6
7051	2
7052	2
7053	6
7054	8
7055	1
7056	5
7057	3
7058	4
7059	3
7060	3
7061	1
7062	6
7063	5
7064	2
7065	2
7066	5
7067	2
7068	2
7069	7
7070	1
7071	4
7072	1
7073	1
7074	3
7075	3
7076	3
7077	2
7078	1
7079	1
7080	2
7081	1
7082	1
7083	1
7084	2
7085	1
7086	3
7087	1
7088	2
7089	2
7090	3
7091	3
7092	4
7093	0
7094	4
7095	4
7096	2
7097	1
7098	0
7099	3
7100	4
7101	2
7102	4
7103	2
7104	1
7105	1
7106	2
7107	5
7108	8
7109	1
7110	4
7111	5
7112	3
7113	4
7114	3
7115	0
7116	5
7117	3
7118	2
7119	5
7120	2
7121	1
7122	2
7123	2
7124	2
7125	2
7126	6
7127	2
7128	3
7129	3
7130	3
7131	4
7132	1
7133	1
7134	3
7135	5
7136	4
7137	6
7138	4
7139	3
7140	4
7141	2
7142	1
7143	1
7144	0
7145	3
7146	1
7147	4
7148	3
7149	3
7150	1
7151	0
7152	3
7153	2
7154	2
7155	4
7156	1
7157	2
7158	4
7159	4
7160	8
7161	3
7162	1
7163	4
7164	2
7165	2
7166	3
7167	1
7168	2
7169	4
7170	3
7171	4
7172	3
7173	4
7174	3
7175	3
7176	2
7177	0
7178	2
7179	4
7180	2
7181	2
7182	3
7183	1
7184	7
7185	1
7186	3
7187	3
7188	1
7189	3
7190	2
7191	1
7192	1
7193	2
7194	1
7195	0
7196	5
7197	0
7198	2
7199	2
7200	2
7201	3
7202	3
7203	0
7204	2
7205	3
7206	2
7207	7
7208	2
7209	7
7210	3
7211	3
7212	1
7213	5
7214	1
7215	1
7216	0
7217	4
7218	0
7219	2
7220	2
7221	1
7222	2
7223	5
7224	2
7225	0
7226	2
7227	3
7228	1
7229	3
7230	2
7231	2
7232	0
7233	1
7234	5
7235	3
7236	2
7237	1
7238	3
7239	3
7240	5
7241	4
7242	6
7243	3
7244	7
7245	6
7246	4
7247	6
7248	2
7249	3
7250	4
7251	2
7252	4
7253	1
7254	0
7255	1
7256	4
7257	1
7258	4
7259	1
7260	1
7261	4
7262	3
7263	4
7264	1
7265	1
7266	4
7267	3
7268	1
7269	3
7270	1
7271	1
7272	1
7273	2
7274	2
7275	5
7276	2
7277	6
7278	0
7279	0
7280	4
7281	0
7282	2
7283	2
7284	3
7285	6
7286	4
7287	2
7288	3
7289	3
7290	9
7291	4
7292	3
7293	2
7294	3
7295	0
7296	1
7297	2
7298	2
7299	4
7300	4
7301	2
7302	1
7303	3
7304	3
7305	1
7306	4
7307	1
7308	1
7309	4
7310	5
7311	1
7312	3
7313	0
7314	1
7315	5
7316	0
7317	3
7318	5
7319	3
7320	0
7321	1
7322	3
7323	1
7324	1
7325	2
7326	0
7327	3
7328	4
7329	3
7330	2
7331	2
7332	4
7333	1
7334	0
7335	3
7336	1
7337	0
7338	1
7339	2
7340	3
7341	2
7342	3
7343	0
7344	1
7345	1
7346	1
7347	3
7348	3
7349	4
7350	1
7351	2
7352	2
7353	0
7354	2
7355	0
7356	1
7357	4
7358	1
7359	2
7360	4
7361	3
7362	1
7363	4
7364	2
7365	3
7366	4
7367	0
7368	6
7369	1
7370	2
7371	1
7372	0
7373	3
7374	3
7375	0
7376	2
7377	2
7378	1
7379	2
7380	1
7381	2
7382	6
7383	0
7384	4
7385	3
7386	3
7387	1
7388	1
7389	0
7390	3
7391	2
7392	1
7393	0
7394	2
7395	4
7396	3
7397	4
7398	2
7399	2
7400	1
7401	0
7402	2
7403	1
7404	0
7405	1
7406	4
7407	2
7408	0
7409	1
7410	4
7411	0
7412	4
7413	7
7414	3
7415	2
7416	3
7417	3
7418	2
7419	3
7420	1
7421	2
7422	1
7423	2
7424	3
7425	4
7426	3
7427	3
7428	3
7429	0
7430	3
7431	3
7432	1
7433	3
7434	4
7435	3
7436	1
7437	4
7438	1
7439	2
7440	3
7441	2
7442	1
7443	4
7444	3
7445	4
7446	2
7447	2
7448	5
7449	1
7450	2
7451	0
7452	2
7453	2
7454	0
7455	2
7456	3
7457	0
7458	2
7459	4
7460	2
7461	2
7462	2
7463	1
7464	2
7465	0
7466	3
7467	2
7468	0
7469	2
7470	2
7471	2
7472	2
7473	0
7474	2
7475	3
7476	1
7477	3
7478	1
7479	4
7480	4
7481	2
7482	0
7483	3
7484	2
7485	0
7486	3
7487	1
7488	1
7489	0
7490	2
7491	4
7492	3
7493	1
7494	1
7495	1
7496	0
7497	4
7498	5
7499	3
7500	5
7501	3
7502	2
7503	3
7504	1
7505	1
7506	3
7507	5
7508	2
7509	1
7510	1
7511	8
7512	2
7513	1
7514	1
7515	0
7516	3
7517	0
7518	5
7519	2
7520	5
7521	2
7522	5
7523	1
7524	1
7525	6
7526	2
7527	6
7528	1
7529	1
7530	2
7531	3
7532	1
7533	2
7534	4
7535	2
7536	5
7537	4
7538	4
7539	1
7540	2
7541	5
7542	1
7543	3
7544	2
7545	3
7546	2
7547	0
7548	1
7549	4
7550	2
7551	1
7552	1
7553	2
7554	0
7555	1
7556	3
7557	3
7558	0
7559	1
7560	3
7561	1
7562	1
7563	7
7564	3
7565	6
7566	3
7567	1
7568	1
7569	3
7570	0
7571	3
7572	1
7573	2
7574	1
7575	3
7576	0
7577	2
7578	5
7579	1
7580	2
7581	3
7582	3
7583	3
7584	4
7585	4
7586	2
7587	5
7588	3
7589	1
7590	0
7591	2
7592	1
7593	2
7594	4
7595	5
7596	3
7597	1
7598	2
7599	3
7600	2
7601	7
7602	1
7603	0
7604	1
7605	1
7606	3
7607	1
7608	2
7609	2
7610	2
7611	4
7612	2
7613	2
7614	1
7615	2
7616	1
7617	2
7618	1
7619	6
7620	0
7621	3
7622	4
7623	3
7624	6
7625	0
7626	1
7627	3
7628	1
7629	1
7630	0
7631	0
7632	2
7633	1
7634	3
7635	1
7636	3
7637	2
7638	5
7639	2
7640	0
7641	7
7642	2
7643	1
7644	3
7645	1
7646	2
7647	0
7648	1
7649	1
7650	4
7651	1
7652	3
7653	1
7654	0
7655	1
7656	4
7657	2
7658	3
7659	1
7660	2
7661	1
7662	0
7663	2
7664	4
7665	1
7666	1
7667	3
7668	2
7669	1
7670	1
7671	0
7672	1
7673	1
7674	4
7675	0
7676	0
7677	1
7678	2
7679	3
7680	5
7681	5
7682	4
7683	1
7684	1
7685	1
7686	5
7687	1
7688	2
7689	1
7690	2
7691	0
7692	2
7693	4
7694	2
7695	5
7696	2
7697	2
7698	3
7699	1
7700	3
7701	3
7702	0
7703	2
7704	6
7705	0
7706	1
7707	1
7708	2
7709	1
7710	3
7711	2
7712	3
7713	2
7714	3
7715	1
7716	4
7717	1
7718	2
7719	1
7720	5
7721	3
7722	1
7723	1
7724	2
7725	5
7726	2
7727	0
7728	1
7729	2
7730	2
7731	2
7732	4
7733	3
7734	1
7735	2
7736	4
7737	2
7738	2
7739	3
7740	0
7741	1
7742	4
7743	5
7744	4
7745	2
7746	0
7747	1
7748	2
7749	2
7750	1
7751	2
7752	2
7753	0
7754	2
7755	1
7756	1
7757	3
7758	2
7759	3
7760	1
7761	0
7762	5
7763	4
7764	3
7765	1
7766	2
7767	3
7768	3
7769	2
7770	3
7771	3
7772	1
7773	5
7774	3
7775	1
7776	2
7777	3
7778	1
7779	3
7780	0
7781	3
7782	3
7783	2
7784	4
7785	3
7786	4
7787	2
7788	3
7789	1
7790	1
7791	2
7792	1
7793	2
7794	1
7795	5
7796	0
7797	1
7798	1
7799	2
7800	1
7801	0
7802	4
7803	4
7804	2
7805	0
7806	0
7807	1
7808	1
7809	0
7810	4
7811	1
7812	1
7813	2
7814	1
7815	1
7816	0
7817	3
7818	3
7819	2
7820	0
7821	3
7822	2
7823	1
7824	2
7825	3
7826	1
7827	4
7828	1
7829	2
7830	0
7831	2
7832	2
7833	0
7834	1
7835	0
7836	0
7837	3
7838	1
7839	1
7840	2
7841	3
7842	6
7843	4
7844	2
7845	2
7846	1
7847	2
7848	2
7849	3
7850	1
7851	1
7852	2
7853	2
7854	1
7855	1
7856	1
7857	2
7858	1
7859	3
7860	2
7861	2
7862	0
7863	1
7864	1
7865	3
7866	2
7867	1
7868	4
7869	1
7870	0
7871	0
7872	5
7873	1
7874	2
7875	2
7876	2
7877	0
7878	1
7879	4
7880	3
7881	0
7882	1
7883	2
7884	3
7885	1
7886	3
7887	0
7888	0
7889	2
7890	2
7891	1
7892	3
7893	2
7894	2
7895	0
7896	0
7897	1
7898	0
7899	0
7900	0
7901	4
7902	5
7903	2
7904	1
7905	0
7906	0
7907	0
7908	0
7909	0
7910	1
7911	2
7912	0
7913	3
7914	3
7915	2
7916	2
7917	3
7918	2
7919	3
7920	3
7921	1
7922	2
7923	0
7924	3
7925	2
7926	1
7927	1
7928	3
7929	0
7930	3
7931	4
7932	1
7933	1
7934	2
7935	2
7936	1
7937	2
7938	0
7939	3
7940	1
7941	3
7942	2
7943	1
7944	1
7945	0
7946	1
7947	2
7948	4
7949	2
7950	2
7951	1
7952	2
7953	4
7954	3
7955	1
7956	2
7957	2
7958	1
7959	2
7960	1
7961	0
7962	1
7963	5
7964	1
7965	1
7966	2
7967	6
7968	0
7969	4
7970	2
7971	4
7972	2
7973	4
7974	0
7975	1
7976	4
7977	4
7978	4
7979	2
7980	4
7981	1
7982	5
7983	4
7984	1
7985	1
7986	3
7987	4
7988	1
7989	2
7990	4
7991	1
7992	2
7993	4
7994	0
7995	0
7996	1
7997	0
7998	3
7999	1
8000	4
8001	0
8002	2
8003	0
8004	1
8005	2
8006	2
8007	2
8008	5
8009	3
8010	4
8011	1
8012	4
8013	1
8014	4
8015	2
8016	0
8017	4
8018	2
8019	1
8020	1
8021	1
8022	1
8023	2
8024	1
8025	2
8026	1
8027	1
8028	3
8029	1
8030	0
8031	0
8032	0
8033	1
8034	1
8035	3
8036	1
8037	0
8038	1
8039	0
8040	3
8041	2
8042	1
8043	1
8044	4
8045	1
8046	3
8047	0
8048	0
8049	0
8050	1
8051	1
8052	2
8053	1
8054	1
8055	4
8056	1
8057	1
8058	4
8059	0
8060	0
8061	3
8062	3
8063	1
8064	0
8065	0
8066	0
8067	0
8068	0
8069	0
8070	0
8071	0
8072	0
8073	0
8074	0
8075	0
8076	0
8077	0
8078	0
8079	0
8080	0
8081	0
8082	0
8083	0
8084	0
8085	0
8086	0
8087	0
8088	0
8089	0
8090	0
8091	0
8092	0
8093	0
8094	0
8095	0
8096	0
8097	0
8098	0
8099	0
8100	0
8101	0
8102	0
8103	0
8104	0
8105	0
8106	0
8107	0
8108	0
8109	0
8110	0
8111	0
8112	0
8113	0
8114	0
8115	0
8116	0
8117	0
8118	0
8119	0
8120	0
8121	0
8122	0
8123	0
8124	0
8125	0
8126	0
8127	0
8128	0
8129	0
8130	0
8131	0
8132	0
8133	0
8134	0
8135	0
8136	0
8137	0
8138	0
8139	0
8140	0
8141	0
8142	0
8143	0
8144	0
8145	0
8146	0
8147	0
8148	0
8149	0
8150	0
8151	0
8152	0
8153	0
8154	0
8155	0
8156	0
8157	0
8158	0
8159	0
8160	0
8161	0
8162	0
8163	0
8164	0
8165	0
8166	0
8167	0
8168	0
8169	0
8170	0
8171	0
8172	0
8173	0
8174	0
8175	0
8176	0
8177	0
8178	0
8179	0
8180	0
8181	0
8182	0
8183	0
8184	0
8185	0
8186	0
8187	0
8188	0
8189	0
8190	0
8191	0
