0	0
1	0
2	0
3	0
4	0
5	0
6	0
7	0
8	0
9	0
10	0
11	0
12	0
13	0
14	0
15	0
16	0
17	0
18	0
19	0
20	0
21	0
22	0
23	0
24	0
25	0
26	0
27	0
28	0
29	0
30	0
31	0
32	0
33	0
34	0
35	0
36	0
37	0
38	0
39	0
40	0
41	0
42	0
43	0
44	0
45	0
46	0
47	0
48	0
49	0
50	0
51	0
52	0
53	0
54	0
55	0
56	0
57	0
58	0
59	0
60	0
61	0
62	0
63	0
64	0
65	0
66	0
67	0
68	0
69	0
70	0
71	0
72	0
73	0
74	0
75	0
76	0
77	0
78	0
79	0
80	0
81	0
82	0
83	0
84	0
85	0
86	0
87	0
88	0
89	0
90	0
91	0
92	0
93	0
94	0
95	0
96	0
97	0
98	0
99	0
100	0
101	0
102	0
103	0
104	0
105	0
106	0
107	0
108	0
109	0
110	0
111	0
112	0
113	0
114	0
115	0
116	0
117	1
118	502
119	1632
120	2711
121	3339
122	3389
123	3213
124	3323
125	3169
126	3080
127	3196
128	3084
129	3139
130	3071
131	2949
132	2949
133	2925
134	2959
135	2898
136	2882
137	2838
138	2869
139	2814
140	2897
141	2862
142	2778
143	2817
144	2707
145	2736
146	2685
147	2785
148	2750
149	2695
150	2522
151	2656
152	2687
153	2530
154	2405
155	2604
156	2602
157	2575
158	2554
159	2464
160	2594
161	2538
162	2460
163	2443
164	2522
165	2479
166	2494
167	2509
168	2318
169	2418
170	2463
171	2396
172	2447
173	2477
174	2303
175	2448
176	2450
177	2337
178	2240
179	2343
180	2240
181	2274
182	2332
183	2344
184	2306
185	2401
186	2457
187	2613
188	2776
189	2740
190	2684
191	2439
192	2246
193	2339
194	2319
195	2290
196	2401
197	2408
198	2364
199	2366
200	2350
201	2445
202	2410
203	2443
204	2534
205	2589
206	2685
207	2711
208	2531
209	2464
210	2470
211	2500
212	2485
213	2522
214	2437
215	2484
216	2511
217	2600
218	2693
219	2672
220	2675
221	2724
222	2914
223	2875
224	2931
225	3009
226	2976
227	3112
228	3172
229	3469
230	4228
231	4906
232	4795
233	4448
234	3818
235	3169
236	3037
237	3041
238	3143
239	3063
240	3144
241	3209
242	3465
243	3579
244	3524
245	3433
246	3271
247	3262
248	3420
249	3448
250	3397
251	3501
252	3550
253	3572
254	3597
255	3757
256	3799
257	3978
258	4354
259	5443
260	7053
261	8382
262	8439
263	7488
264	6797
265	7665
266	10130
267	12068
268	11830
269	9440
270	6431
271	4545
272	3966
273	3861
274	3776
275	3682
276	3600
277	3639
278	3690
279	3513
280	3335
281	3190
282	3365
283	3850
284	4383
285	4500
286	4326
287	3786
288	3527
289	3232
290	3512
291	4246
292	5389
293	6273
294	6363
295	5513
296	4455
297	3880
298	3750
299	4074
300	4130
301	4224
302	3971
303	3484
304	3737
305	4818
306	6591
307	7870
308	8160
309	6869
310	5163
311	3943
312	3406
313	3224
314	3080
315	2746
316	2520
317	2398
318	2391
319	2446
320	2673
321	2762
322	2858
323	2821
324	2749
325	2523
326	2462
327	2321
328	2329
329	2265
330	2313
331	2300
332	2152
333	2315
334	2337
335	2380
336	2325
337	2321
338	2281
339	2338
340	2281
341	2346
342	2340
343	2419
344	2319
345	2388
346	2437
347	2396
348	2458
349	2503
350	2506
351	2605
352	2494
353	2528
354	2563
355	2522
356	2566
357	2684
358	2696
359	2839
360	2926
361	2726
362	2682
363	2474
364	2487
365	2324
366	2330
367	2317
368	2388
369	2436
370	2451
371	2330
372	2416
373	2368
374	2364
375	2465
376	2231
377	2306
378	2356
379	2382
380	2457
381	2408
382	2389
383	2417
384	2592
385	2423
386	2412
387	2422
388	2375
389	2439
390	2429
391	2422
392	2445
393	2424
394	2439
395	2471
396	2421
397	2452
398	2446
399	2403
400	2482
401	2443
402	2399
403	2453
404	2368
405	2548
406	2443
407	2401
408	2439
409	2538
410	2450
411	2458
412	2395
413	2525
414	2470
415	2462
416	2489
417	2569
418	2557
419	2483
420	2423
421	2483
422	2512
423	2499
424	2634
425	2520
426	2534
427	2550
428	2569
429	2664
430	2692
431	2550
432	2583
433	2669
434	2674
435	2617
436	2632
437	2735
438	3002
439	3434
440	3534
441	3566
442	3302
443	2880
444	2710
445	2627
446	2599
447	2542
448	2558
449	2572
450	2564
451	2588
452	2729
453	2709
454	2664
455	2674
456	2653
457	2627
458	2720
459	2706
460	2684
461	2767
462	2683
463	2622
464	2863
465	2833
466	3026
467	3060
468	3024
469	2880
470	2786
471	2661
472	2530
473	2571
474	2697
475	2631
476	2572
477	2707
478	2601
479	2481
480	2491
481	2609
482	2582
483	2446
484	2431
485	2457
486	2375
487	2501
488	2525
489	2645
490	2782
491	2772
492	2638
493	2482
494	2441
495	2354
496	2311
497	2415
498	2335
499	2342
500	2306
501	2313
502	2280
503	2242
504	2289
505	2240
506	2271
507	2317
508	2321
509	2332
510	2292
511	2267
512	2207
513	2203
514	2223
515	2274
516	2294
517	2222
518	2276
519	2256
520	2271
521	2227
522	2322
523	2146
524	2245
525	2213
526	2247
527	2347
528	2264
529	2285
530	2253
531	2203
532	2284
533	2344
534	2206
535	2347
536	2359
537	2368
538	2320
539	2388
540	2375
541	2319
542	2317
543	2390
544	2475
545	2941
546	4144
547	6083
548	8739
549	10535
550	10061
551	8018
552	5446
553	3458
554	2525
555	2225
556	2136
557	2075
558	2168
559	2197
560	2131
561	2136
562	2059
563	2043
564	2077
565	2118
566	1986
567	2112
568	2059
569	2120
570	2029
571	2072
572	2084
573	2114
574	2181
575	2149
576	2157
577	2074
578	2125
579	2052
580	2010
581	2077
582	2069
583	2048
584	2022
585	2014
586	2043
587	1976
588	1950
589	2051
590	1993
591	2006
592	1980
593	1944
594	1934
595	1921
596	1925
597	2040
598	2168
599	2289
600	2180
601	1969
602	1921
603	1847
604	1707
605	1803
606	1853
607	1749
608	1765
609	1746
610	1765
611	1757
612	1763
613	1763
614	1866
615	1800
616	1765
617	1810
618	1710
619	1766
620	1689
621	1696
622	1680
623	1669
624	1668
625	1650
626	1676
627	1749
628	1758
629	1678
630	1652
631	1687
632	1656
633	1703
634	1757
635	1665
636	1626
637	1618
638	1700
639	1715
640	1698
641	1656
642	1591
643	1563
644	1632
645	1596
646	1591
647	1621
648	1616
649	1582
650	1661
651	1616
652	1596
653	1573
654	1579
655	1541
656	1629
657	1606
658	1661
659	1663
660	1598
661	1553
662	1637
663	1606
664	1594
665	1577
666	1568
667	1630
668	1515
669	1514
670	1500
671	1529
672	1556
673	1549
674	1585
675	1675
676	1808
677	1963
678	2214
679	2231
680	2095
681	1822
682	1640
683	1570
684	1519
685	1590
686	1529
687	1540
688	1567
689	1564
690	1915
691	3103
692	5213
693	8162
694	9902
695	9711
696	7463
697	4396
698	2590
699	1616
700	1376
701	1340
702	1327
703	1376
704	1330
705	1333
706	1298
707	1334
708	1320
709	1309
710	1351
711	1351
712	1253
713	1309
714	1263
715	1307
716	1351
717	1279
718	1336
719	1233
720	1291
721	1237
722	1306
723	1343
724	1274
725	1355
726	1361
727	1336
728	1416
729	1421
730	1557
731	1640
732	1607
733	1536
734	1392
735	1507
736	1604
737	1769
738	1912
739	1708
740	1615
741	1382
742	1314
743	1288
744	1270
745	1239
746	1304
747	1280
748	1174
749	1264
750	1224
751	1208
752	1232
753	1149
754	1180
755	1190
756	1139
757	1218
758	1206
759	1213
760	1169
761	1220
762	1372
763	1503
764	1720
765	1859
766	1934
767	1834
768	1756
769	1770
770	1777
771	1670
772	1492
773	1330
774	1265
775	1281
776	1296
777	1463
778	1538
779	1584
780	1524
781	1444
782	1284
783	1163
784	1212
785	1160
786	1109
787	1189
788	1099
789	1120
790	1147
791	1114
792	1173
793	1165
794	1170
795	1259
796	1187
797	1214
798	1146
799	1144
800	1117
801	1212
802	1193
803	1171
804	1144
805	1159
806	1200
807	1191
808	1230
809	1195
810	1169
811	1169
812	1059
813	1093
814	1149
815	1093
816	1090
817	1098
818	1092
819	1169
820	1118
821	1163
822	1143
823	1150
824	1125
825	1176
826	1216
827	1508
828	2588
829	5951
830	11455
831	17496
832	20037
833	18189
834	12558
835	6486
836	2898
837	1562
838	1176
839	1055
840	987
841	1014
842	1025
843	1158
844	1129
845	1175
846	1068
847	1055
848	975
849	1015
850	1026
851	1099
852	1039
853	998
854	1005
855	1021
856	1018
857	967
858	1004
859	998
860	936
861	923
862	841
863	871
864	921
865	893
866	919
867	908
868	924
869	893
870	859
871	897
872	868
873	933
874	909
875	920
876	929
877	940
878	966
879	992
880	954
881	949
882	1029
883	951
884	896
885	949
886	914
887	929
888	892
889	917
890	924
891	914
892	893
893	860
894	897
895	874
896	904
897	870
898	845
899	902
900	867
901	939
902	914
903	869
904	992
905	1097
906	1086
907	1137
908	1071
909	948
910	917
911	896
912	852
913	897
914	841
915	908
916	851
917	910
918	925
919	897
920	995
921	1049
922	1063
923	991
924	930
925	907
926	899
927	882
928	888
929	895
930	900
931	982
932	995
933	917
934	948
935	915
936	909
937	887
938	896
939	886
940	911
941	894
942	945
943	999
944	989
945	1002
946	936
947	941
948	860
949	913
950	879
951	842
952	967
953	925
954	933
955	865
956	945
957	806
958	850
959	890
960	871
961	892
962	837
963	890
964	898
965	885
966	897
967	838
968	853
969	967
970	996
971	1069
972	1003
973	1237
974	1995
975	4505
976	10599
977	20301
978	29946
979	33924
980	29371
981	19101
982	9486
983	3753
984	1463
985	891
986	739
987	704
988	711
989	699
990	676
991	669
992	667
993	658
994	681
995	721
996	679
997	580
998	693
999	657
1000	673
1001	699
1002	641
1003	689
1004	604
1005	649
1006	653
1007	675
1008	679
1009	647
1010	736
1011	669
1012	705
1013	641
1014	624
1015	677
1016	628
1017	631
1018	616
1019	699
1020	698
1021	677
1022	676
1023	633
1024	649
1025	649
1026	659
1027	673
1028	674
1029	637
1030	726
1031	689
1032	684
1033	670
1034	666
1035	648
1036	664
1037	636
1038	643
1039	717
1040	655
1041	644
1042	627
1043	615
1044	660
1045	664
1046	634
1047	670
1048	674
1049	683
1050	616
1051	684
1052	726
1053	642
1054	622
1055	633
1056	636
1057	646
1058	640
1059	701
1060	692
1061	656
1062	672
1063	679
1064	654
1065	686
1066	720
1067	747
1068	793
1069	904
1070	912
1071	852
1072	811
1073	870
1074	915
1075	988
1076	880
1077	838
1078	748
1079	700
1080	654
1081	666
1082	662
1083	647
1084	663
1085	661
1086	649
1087	692
1088	671
1089	661
1090	705
1091	703
1092	682
1093	682
1094	730
1095	698
1096	698
1097	690
1098	652
1099	684
1100	643
1101	691
1102	624
1103	701
1104	694
1105	760
1106	805
1107	855
1108	904
1109	892
1110	863
1111	825
1112	680
1113	711
1114	733
1115	813
1116	871
1117	869
1118	898
1119	883
1120	767
1121	792
1122	673
1123	648
1124	638
1125	692
1126	658
1127	674
1128	701
1129	677
1130	679
1131	677
1132	640
1133	695
1134	695
1135	704
1136	645
1137	642
1138	707
1139	619
1140	657
1141	672
1142	658
1143	687
1144	709
1145	706
1146	652
1147	688
1148	728
1149	728
1150	673
1151	718
1152	672
1153	659
1154	692
1155	719
1156	671
1157	689
1158	747
1159	694
1160	701
1161	644
1162	693
1163	695
1164	643
1165	625
1166	653
1167	674
1168	688
1169	635
1170	691
1171	690
1172	680
1173	759
1174	693
1175	659
1176	711
1177	635
1178	662
1179	613
1180	627
1181	581
1182	598
1183	593
1184	575
1185	593
1186	583
1187	554
1188	574
1189	544
1190	544
1191	527
1192	492
1193	520
1194	570
1195	549
1196	523
1197	553
1198	499
1199	535
1200	501
1201	576
1202	507
1203	512
1204	589
1205	529
1206	544
1207	556
1208	541
1209	526
1210	485
1211	545
1212	492
1213	532
1214	484
1215	460
1216	537
1217	467
1218	519
1219	496
1220	597
1221	538
1222	527
1223	518
1224	503
1225	467
1226	492
1227	482
1228	483
1229	463
1230	463
1231	490
1232	478
1233	447
1234	478
1235	491
1236	481
1237	449
1238	489
1239	506
1240	493
1241	525
1242	548
1243	576
1244	652
1245	664
1246	601
1247	596
1248	542
1249	458
1250	454
1251	454
1252	487
1253	472
1254	458
1255	467
1256	445
1257	399
1258	430
1259	499
1260	461
1261	517
1262	524
1263	603
1264	596
1265	563
1266	531
1267	524
1268	463
1269	469
1270	457
1271	479
1272	424
1273	410
1274	418
1275	450
1276	414
1277	455
1278	475
1279	442
1280	446
1281	493
1282	473
1283	502
1284	520
1285	511
1286	459
1287	422
1288	430
1289	389
1290	412
1291	414
1292	430
1293	473
1294	472
1295	481
1296	462
1297	492
1298	497
1299	471
1300	445
1301	402
1302	420
1303	382
1304	454
1305	389
1306	387
1307	438
1308	441
1309	495
1310	550
1311	587
1312	672
1313	599
1314	490
1315	443
1316	398
1317	432
1318	428
1319	398
1320	384
1321	369
1322	403
1323	380
1324	429
1325	450
1326	489
1327	530
1328	631
1329	700
1330	671
1331	510
1332	471
1333	437
1334	381
1335	407
1336	387
1337	383
1338	361
1339	347
1340	355
1341	389
1342	382
1343	397
1344	385
1345	348
1346	366
1347	351
1348	395
1349	360
1350	357
1351	332
1352	381
1353	398
1354	361
1355	354
1356	388
1357	375
1358	371
1359	360
1360	360
1361	361
1362	324
1363	394
1364	359
1365	359
1366	374
1367	410
1368	333
1369	372
1370	382
1371	365
1372	360
1373	365
1374	340
1375	328
1376	406
1377	376
1378	361
1379	384
1380	369
1381	372
1382	345
1383	396
1384	389
1385	410
1386	433
1387	543
1388	590
1389	579
1390	550
1391	567
1392	571
1393	507
1394	506
1395	439
1396	412
1397	428
1398	372
1399	335
1400	360
1401	343
1402	366
1403	358
1404	338
1405	346
1406	320
1407	379
1408	339
1409	359
1410	352
1411	339
1412	367
1413	337
1414	367
1415	338
1416	372
1417	325
1418	339
1419	355
1420	343
1421	326
1422	376
1423	370
1424	386
1425	344
1426	333
1427	326
1428	327
1429	336
1430	333
1431	360
1432	324
1433	329
1434	366
1435	352
1436	340
1437	324
1438	338
1439	363
1440	343
1441	363
1442	348
1443	353
1444	351
1445	381
1446	348
1447	376
1448	446
1449	487
1450	484
1451	467
1452	419
1453	356
1454	343
1455	351
1456	358
1457	386
1458	355
1459	350
1460	376
1461	341
1462	382
1463	364
1464	300
1465	346
1466	320
1467	334
1468	321
1469	309
1470	335
1471	336
1472	374
1473	427
1474	406
1475	392
1476	404
1477	361
1478	386
1479	394
1480	329
1481	329
1482	358
1483	361
1484	386
1485	323
1486	326
1487	346
1488	317
1489	345
1490	325
1491	330
1492	367
1493	336
1494	340
1495	359
1496	330
1497	344
1498	312
1499	367
1500	358
1501	338
1502	351
1503	323
1504	352
1505	315
1506	313
1507	351
1508	286
1509	313
1510	320
1511	334
1512	353
1513	352
1514	319
1515	312
1516	308
1517	340
1518	335
1519	373
1520	319
1521	340
1522	310
1523	352
1524	323
1525	343
1526	322
1527	331
1528	346
1529	323
1530	355
1531	307
1532	336
1533	325
1534	338
1535	320
1536	334
1537	331
1538	348
1539	316
1540	331
1541	365
1542	333
1543	323
1544	338
1545	353
1546	319
1547	319
1548	371
1549	360
1550	347
1551	358
1552	332
1553	348
1554	355
1555	322
1556	314
1557	346
1558	339
1559	347
1560	354
1561	316
1562	302
1563	287
1564	319
1565	327
1566	306
1567	374
1568	483
1569	511
1570	542
1571	483
1572	403
1573	410
1574	323
1575	315
1576	339
1577	301
1578	337
1579	304
1580	311
1581	307
1582	299
1583	318
1584	297
1585	297
1586	287
1587	283
1588	289
1589	302
1590	294
1591	294
1592	315
1593	292
1594	320
1595	293
1596	317
1597	331
1598	293
1599	293
1600	297
1601	285
1602	313
1603	307
1604	304
1605	296
1606	283
1607	276
1608	303
1609	338
1610	313
1611	319
1612	299
1613	337
1614	307
1615	301
1616	290
1617	292
1618	341
1619	276
1620	283
1621	320
1622	314
1623	299
1624	336
1625	316
1626	287
1627	304
1628	325
1629	310
1630	309
1631	316
1632	347
1633	336
1634	360
1635	305
1636	308
1637	321
1638	331
1639	426
1640	868
1641	2348
1642	5933
1643	11888
1644	19120
1645	24101
1646	23949
1647	18717
1648	11350
1649	5462
1650	2119
1651	733
1652	365
1653	289
1654	271
1655	258
1656	240
1657	214
1658	262
1659	267
1660	272
1661	263
1662	253
1663	292
1664	257
1665	294
1666	264
1667	253
1668	223
1669	254
1670	217
1671	212
1672	263
1673	219
1674	232
1675	241
1676	214
1677	242
1678	221
1679	225
1680	216
1681	227
1682	226
1683	238
1684	237
1685	215
1686	206
1687	225
1688	223
1689	213
1690	209
1691	198
1692	216
1693	245
1694	242
1695	234
1696	225
1697	236
1698	217
1699	225
1700	221
1701	229
1702	242
1703	222
1704	253
1705	233
1706	252
1707	221
1708	252
1709	242
1710	244
1711	239
1712	238
1713	210
1714	228
1715	234
1716	200
1717	226
1718	207
1719	224
1720	225
1721	242
1722	221
1723	227
1724	228
1725	249
1726	211
1727	228
1728	212
1729	216
1730	227
1731	197
1732	226
1733	221
1734	198
1735	234
1736	202
1737	218
1738	203
1739	207
1740	209
1741	214
1742	226
1743	209
1744	207
1745	205
1746	232
1747	198
1748	243
1749	252
1750	250
1751	217
1752	224
1753	212
1754	214
1755	206
1756	203
1757	227
1758	209
1759	176
1760	214
1761	218
1762	200
1763	215
1764	200
1765	181
1766	204
1767	239
1768	207
1769	200
1770	237
1771	233
1772	190
1773	252
1774	213
1775	209
1776	232
1777	231
1778	221
1779	234
1780	194
1781	232
1782	199
1783	226
1784	226
1785	224
1786	263
1787	313
1788	433
1789	687
1790	822
1791	899
1792	813
1793	656
1794	482
1795	310
1796	213
1797	243
1798	219
1799	197
1800	223
1801	196
1802	181
1803	211
1804	191
1805	215
1806	227
1807	222
1808	217
1809	196
1810	202
1811	210
1812	211
1813	188
1814	228
1815	199
1816	181
1817	199
1818	206
1819	223
1820	215
1821	223
1822	218
1823	214
1824	213
1825	184
1826	205
1827	216
1828	224
1829	198
1830	190
1831	196
1832	213
1833	221
1834	228
1835	241
1836	273
1837	234
1838	245
1839	224
1840	226
1841	217
1842	216
1843	221
1844	197
1845	256
1846	243
1847	205
1848	213
1849	198
1850	192
1851	215
1852	204
1853	194
1854	214
1855	200
1856	222
1857	204
1858	186
1859	204
1860	224
1861	225
1862	218
1863	190
1864	197
1865	190
1866	218
1867	200
1868	199
1869	213
1870	237
1871	222
1872	239
1873	217
1874	236
1875	219
1876	230
1877	210
1878	194
1879	219
1880	206
1881	232
1882	194
1883	229
1884	259
1885	288
1886	321
1887	388
1888	421
1889	425
1890	386
1891	321
1892	263
1893	270
1894	225
1895	212
1896	228
1897	209
1898	238
1899	221
1900	242
1901	246
1902	246
1903	200
1904	207
1905	227
1906	216
1907	239
1908	222
1909	219
1910	217
1911	221
1912	213
1913	229
1914	211
1915	221
1916	193
1917	193
1918	217
1919	194
1920	196
1921	198
1922	211
1923	180
1924	200
1925	184
1926	209
1927	226
1928	254
1929	294
1930	333
1931	387
1932	379
1933	349
1934	319
1935	265
1936	222
1937	213
1938	224
1939	217
1940	215
1941	218
1942	206
1943	181
1944	185
1945	190
1946	193
1947	211
1948	238
1949	198
1950	209
1951	217
1952	197
1953	181
1954	210
1955	211
1956	192
1957	210
1958	198
1959	204
1960	206
1961	198
1962	217
1963	200
1964	218
1965	212
1966	249
1967	210
1968	242
1969	208
1970	226
1971	199
1972	170
1973	209
1974	220
1975	173
1976	199
1977	185
1978	202
1979	202
1980	199
1981	185
1982	184
1983	243
1984	223
1985	234
1986	203
1987	232
1988	271
1989	288
1990	317
1991	330
1992	308
1993	279
1994	252
1995	249
1996	196
1997	211
1998	196
1999	218
2000	187
2001	194
2002	197
2003	204
2004	208
2005	202
2006	179
2007	198
2008	209
2009	210
2010	196
2011	181
2012	181
2013	193
2014	215
2015	218
2016	272
2017	228
2018	256
2019	248
2020	226
2021	196
2022	226
2023	189
2024	194
2025	173
2026	211
2027	170
2028	213
2029	215
2030	184
2031	182
2032	207
2033	182
2034	218
2035	206
2036	181
2037	224
2038	205
2039	239
2040	216
2041	183
2042	251
2043	229
2044	210
2045	182
2046	182
2047	194
2048	261
2049	294
2050	309
2051	379
2052	442
2053	615
2054	902
2055	1405
2056	1973
2057	2220
2058	2241
2059	1839
2060	1226
2061	713
2062	411
2063	285
2064	240
2065	211
2066	194
2067	192
2068	184
2069	199
2070	212
2071	187
2072	194
2073	187
2074	166
2075	233
2076	214
2077	187
2078	173
2079	176
2080	200
2081	190
2082	204
2083	190
2084	206
2085	196
2086	177
2087	211
2088	181
2089	192
2090	189
2091	200
2092	218
2093	207
2094	215
2095	192
2096	196
2097	190
2098	236
2099	281
2100	379
2101	564
2102	702
2103	727
2104	685
2105	507
2106	421
2107	331
2108	250
2109	203
2110	204
2111	179
2112	207
2113	197
2114	194
2115	202
2116	201
2117	185
2118	192
2119	173
2120	206
2121	196
2122	200
2123	175
2124	211
2125	190
2126	174
2127	176
2128	213
2129	222
2130	190
2131	209
2132	201
2133	197
2134	193
2135	186
2136	213
2137	202
2138	204
2139	219
2140	213
2141	203
2142	194
2143	228
2144	172
2145	193
2146	171
2147	187
2148	207
2149	182
2150	223
2151	253
2152	319
2153	455
2154	600
2155	690
2156	704
2157	565
2158	469
2159	334
2160	250
2161	184
2162	192
2163	170
2164	174
2165	189
2166	186
2167	194
2168	191
2169	195
2170	179
2171	199
2172	181
2173	185
2174	210
2175	210
2176	193
2177	216
2178	198
2179	212
2180	194
2181	223
2182	186
2183	183
2184	200
2185	202
2186	175
2187	198
2188	196
2189	204
2190	206
2191	213
2192	252
2193	247
2194	269
2195	223
2196	255
2197	223
2198	221
2199	209
2200	196
2201	190
2202	187
2203	202
2204	221
2205	210
2206	262
2207	213
2208	243
2209	208
2210	230
2211	196
2212	188
2213	196
2214	194
2215	179
2216	160
2217	207
2218	211
2219	199
2220	229
2221	247
2222	290
2223	277
2224	242
2225	231
2226	200
2227	193
2228	186
2229	198
2230	170
2231	173
2232	217
2233	202
2234	201
2235	211
2236	220
2237	272
2238	324
2239	418
2240	451
2241	467
2242	390
2243	352
2244	264
2245	226
2246	208
2247	208
2248	189
2249	223
2250	180
2251	212
2252	205
2253	199
2254	205
2255	191
2256	176
2257	210
2258	222
2259	190
2260	181
2261	197
2262	205
2263	172
2264	203
2265	224
2266	182
2267	200
2268	180
2269	209
2270	195
2271	186
2272	203
2273	234
2274	192
2275	228
2276	181
2277	187
2278	187
2279	203
2280	185
2281	189
2282	182
2283	198
2284	198
2285	202
2286	219
2287	211
2288	181
2289	179
2290	196
2291	192
2292	213
2293	216
2294	199
2295	196
2296	195
2297	182
2298	197
2299	214
2300	196
2301	204
2302	182
2303	224
2304	218
2305	219
2306	203
2307	201
2308	230
2309	221
2310	196
2311	214
2312	217
2313	215
2314	189
2315	193
2316	209
2317	178
2318	206
2319	208
2320	214
2321	174
2322	189
2323	193
2324	190
2325	192
2326	192
2327	224
2328	198
2329	240
2330	206
2331	225
2332	218
2333	194
2334	210
2335	224
2336	217
2337	225
2338	216
2339	192
2340	204
2341	212
2342	187
2343	207
2344	224
2345	194
2346	212
2347	208
2348	216
2349	204
2350	222
2351	205
2352	219
2353	188
2354	210
2355	239
2356	197
2357	219
2358	215
2359	195
2360	206
2361	206
2362	203
2363	231
2364	210
2365	186
2366	211
2367	218
2368	199
2369	224
2370	217
2371	192
2372	177
2373	197
2374	207
2375	210
2376	236
2377	217
2378	187
2379	230
2380	215
2381	196
2382	197
2383	200
2384	201
2385	202
2386	215
2387	210
2388	203
2389	246
2390	216
2391	196
2392	205
2393	205
2394	234
2395	199
2396	211
2397	208
2398	210
2399	205
2400	215
2401	193
2402	202
2403	198
2404	216
2405	208
2406	220
2407	223
2408	234
2409	209
2410	227
2411	244
2412	229
2413	205
2414	201
2415	197
2416	203
2417	201
2418	212
2419	217
2420	205
2421	210
2422	194
2423	201
2424	202
2425	193
2426	201
2427	217
2428	207
2429	198
2430	177
2431	206
2432	175
2433	198
2434	190
2435	191
2436	219
2437	202
2438	193
2439	221
2440	203
2441	191
2442	184
2443	197
2444	177
2445	157
2446	190
2447	202
2448	160
2449	175
2450	203
2451	180
2452	162
2453	177
2454	205
2455	184
2456	175
2457	211
2458	166
2459	175
2460	175
2461	179
2462	181
2463	190
2464	187
2465	202
2466	194
2467	208
2468	197
2469	189
2470	181
2471	179
2472	164
2473	168
2474	191
2475	182
2476	184
2477	203
2478	177
2479	185
2480	157
2481	206
2482	267
2483	415
2484	636
2485	954
2486	1308
2487	1315
2488	1214
2489	845
2490	565
2491	334
2492	252
2493	183
2494	202
2495	176
2496	148
2497	171
2498	208
2499	177
2500	175
2501	172
2502	162
2503	176
2504	160
2505	168
2506	169
2507	191
2508	182
2509	158
2510	193
2511	164
2512	160
2513	201
2514	170
2515	195
2516	179
2517	180
2518	192
2519	158
2520	166
2521	165
2522	174
2523	143
2524	173
2525	187
2526	189
2527	172
2528	164
2529	192
2530	147
2531	170
2532	154
2533	191
2534	180
2535	163
2536	165
2537	173
2538	153
2539	187
2540	165
2541	179
2542	170
2543	168
2544	167
2545	163
2546	145
2547	160
2548	164
2549	165
2550	185
2551	167
2552	166
2553	182
2554	159
2555	146
2556	160
2557	177
2558	167
2559	174
2560	176
2561	201
2562	228
2563	249
2564	321
2565	329
2566	271
2567	241
2568	207
2569	209
2570	185
2571	188
2572	159
2573	173
2574	154
2575	192
2576	175
2577	149
2578	165
2579	201
2580	177
2581	167
2582	134
2583	164
2584	172
2585	166
2586	159
2587	154
2588	145
2589	144
2590	145
2591	152
2592	171
2593	155
2594	143
2595	171
2596	161
2597	157
2598	166
2599	162
2600	172
2601	179
2602	155
2603	173
2604	159
2605	172
2606	159
2607	156
2608	155
2609	161
2610	151
2611	161
2612	145
2613	165
2614	146
2615	174
2616	166
2617	153
2618	158
2619	154
2620	151
2621	163
2622	171
2623	158
2624	181
2625	164
2626	161
2627	151
2628	158
2629	157
2630	166
2631	139
2632	172
2633	164
2634	151
2635	151
2636	187
2637	155
2638	171
2639	164
2640	145
2641	149
2642	144
2643	176
2644	146
2645	153
2646	154
2647	162
2648	194
2649	147
2650	153
2651	157
2652	167
2653	176
2654	149
2655	182
2656	203
2657	239
2658	371
2659	471
2660	502
2661	476
2662	414
2663	318
2664	212
2665	182
2666	170
2667	153
2668	162
2669	145
2670	163
2671	161
2672	137
2673	152
2674	150
2675	132
2676	166
2677	136
2678	133
2679	169
2680	160
2681	158
2682	157
2683	153
2684	158
2685	161
2686	143
2687	132
2688	161
2689	157
2690	144
2691	156
2692	175
2693	166
2694	158
2695	146
2696	160
2697	153
2698	155
2699	150
2700	144
2701	140
2702	151
2703	146
2704	179
2705	154
2706	136
2707	133
2708	146
2709	137
2710	139
2711	144
2712	144
2713	151
2714	142
2715	157
2716	173
2717	152
2718	139
2719	135
2720	132
2721	121
2722	168
2723	153
2724	121
2725	128
2726	131
2727	149
2728	167
2729	145
2730	134
2731	157
2732	160
2733	145
2734	131
2735	135
2736	159
2737	133
2738	152
2739	161
2740	158
2741	160
2742	161
2743	154
2744	134
2745	144
2746	156
2747	144
2748	145
2749	138
2750	133
2751	128
2752	128
2753	118
2754	158
2755	130
2756	135
2757	150
2758	123
2759	145
2760	133
2761	144
2762	144
2763	138
2764	136
2765	136
2766	165
2767	134
2768	138
2769	126
2770	121
2771	143
2772	145
2773	150
2774	134
2775	136
2776	144
2777	145
2778	149
2779	123
2780	140
2781	133
2782	151
2783	133
2784	128
2785	110
2786	125
2787	142
2788	170
2789	159
2790	197
2791	215
2792	233
2793	220
2794	225
2795	194
2796	153
2797	152
2798	129
2799	143
2800	142
2801	133
2802	153
2803	115
2804	131
2805	147
2806	159
2807	144
2808	133
2809	144
2810	132
2811	141
2812	123
2813	148
2814	123
2815	135
2816	126
2817	130
2818	122
2819	153
2820	135
2821	134
2822	112
2823	141
2824	127
2825	141
2826	135
2827	117
2828	128
2829	141
2830	139
2831	127
2832	153
2833	149
2834	176
2835	135
2836	169
2837	205
2838	203
2839	207
2840	207
2841	190
2842	157
2843	154
2844	152
2845	135
2846	137
2847	148
2848	131
2849	142
2850	117
2851	129
2852	125
2853	123
2854	123
2855	147
2856	131
2857	102
2858	145
2859	110
2860	132
2861	128
2862	144
2863	99
2864	132
2865	130
2866	133
2867	138
2868	108
2869	128
2870	148
2871	143
2872	130
2873	114
2874	134
2875	125
2876	119
2877	119
2878	125
2879	146
2880	125
2881	134
2882	139
2883	120
2884	131
2885	147
2886	145
2887	144
2888	149
2889	138
2890	141
2891	119
2892	122
2893	115
2894	120
2895	130
2896	138
2897	120
2898	139
2899	117
2900	120
2901	111
2902	136
2903	122
2904	117
2905	124
2906	129
2907	134
2908	141
2909	131
2910	119
2911	113
2912	115
2913	133
2914	119
2915	116
2916	136
2917	130
2918	127
2919	107
2920	113
2921	145
2922	152
2923	145
2924	155
2925	161
2926	161
2927	186
2928	158
2929	171
2930	165
2931	142
2932	144
2933	136
2934	119
2935	136
2936	116
2937	139
2938	111
2939	145
2940	130
2941	150
2942	129
2943	129
2944	111
2945	126
2946	127
2947	144
2948	117
2949	130
2950	125
2951	117
2952	153
2953	125
2954	129
2955	126
2956	124
2957	138
2958	139
2959	141
2960	134
2961	129
2962	141
2963	223
2964	416
2965	922
2966	1758
2967	2961
2968	4173
2969	4744
2970	4706
2971	3954
2972	2525
2973	1428
2974	702
2975	316
2976	169
2977	161
2978	131
2979	150
2980	122
2981	120
2982	110
2983	138
2984	127
2985	109
2986	125
2987	122
2988	128
2989	98
2990	155
2991	118
2992	134
2993	116
2994	136
2995	151
2996	129
2997	126
2998	123
2999	126
3000	154
3001	164
3002	177
3003	215
3004	215
3005	211
3006	175
3007	154
3008	145
3009	126
3010	143
3011	133
3012	147
3013	121
3014	109
3015	111
3016	106
3017	101
3018	108
3019	118
3020	132
3021	118
3022	113
3023	118
3024	115
3025	122
3026	118
3027	122
3028	126
3029	123
3030	117
3031	119
3032	126
3033	131
3034	119
3035	135
3036	113
3037	134
3038	100
3039	117
3040	119
3041	127
3042	124
3043	113
3044	123
3045	116
3046	131
3047	148
3048	124
3049	125
3050	111
3051	124
3052	116
3053	136
3054	141
3055	154
3056	242
3057	364
3058	473
3059	635
3060	625
3061	567
3062	442
3063	313
3064	217
3065	142
3066	148
3067	130
3068	119
3069	132
3070	114
3071	113
3072	114
3073	133
3074	114
3075	92
3076	121
3077	106
3078	125
3079	111
3080	102
3081	99
3082	114
3083	118
3084	110
3085	112
3086	111
3087	120
3088	125
3089	97
3090	131
3091	114
3092	116
3093	111
3094	113
3095	108
3096	106
3097	127
3098	105
3099	114
3100	125
3101	119
3102	103
3103	124
3104	111
3105	120
3106	119
3107	129
3108	135
3109	130
3110	120
3111	127
3112	118
3113	125
3114	113
3115	94
3116	112
3117	124
3118	94
3119	112
3120	104
3121	129
3122	94
3123	110
3124	115
3125	129
3126	140
3127	137
3128	152
3129	148
3130	160
3131	142
3132	156
3133	125
3134	117
3135	127
3136	96
3137	121
3138	136
3139	120
3140	114
3141	111
3142	103
3143	125
3144	109
3145	116
3146	111
3147	131
3148	106
3149	110
3150	105
3151	112
3152	91
3153	113
3154	96
3155	107
3156	103
3157	89
3158	111
3159	116
3160	110
3161	109
3162	92
3163	101
3164	115
3165	107
3166	103
3167	99
3168	97
3169	110
3170	103
3171	130
3172	113
3173	102
3174	100
3175	102
3176	111
3177	105
3178	103
3179	87
3180	111
3181	94
3182	106
3183	100
3184	90
3185	110
3186	100
3187	101
3188	107
3189	107
3190	107
3191	94
3192	130
3193	168
3194	188
3195	228
3196	248
3197	244
3198	183
3199	134
3200	124
3201	143
3202	116
3203	110
3204	103
3205	94
3206	91
3207	93
3208	111
3209	106
3210	109
3211	114
3212	102
3213	95
3214	90
3215	102
3216	106
3217	103
3218	113
3219	120
3220	121
3221	128
3222	110
3223	117
3224	119
3225	119
3226	127
3227	112
3228	118
3229	109
3230	112
3231	96
3232	101
3233	105
3234	113
3235	94
3236	94
3237	97
3238	94
3239	105
3240	104
3241	106
3242	88
3243	105
3244	142
3245	90
3246	124
3247	93
3248	99
3249	99
3250	98
3251	106
3252	98
3253	124
3254	94
3255	99
3256	94
3257	101
3258	95
3259	91
3260	116
3261	82
3262	106
3263	96
3264	101
3265	119
3266	101
3267	112
3268	111
3269	168
3270	311
3271	538
3272	1014
3273	1405
3274	1716
3275	1842
3276	1602
3277	1186
3278	748
3279	394
3280	228
3281	129
3282	91
3283	99
3284	90
3285	96
3286	100
3287	88
3288	99
3289	94
3290	87
3291	87
3292	105
3293	82
3294	91
3295	108
3296	95
3297	107
3298	114
3299	86
3300	126
3301	84
3302	105
3303	100
3304	109
3305	116
3306	99
3307	90
3308	91
3309	107
3310	109
3311	127
3312	157
3313	154
3314	173
3315	180
3316	150
3317	151
3318	135
3319	128
3320	108
3321	112
3322	86
3323	90
3324	109
3325	90
3326	114
3327	95
3328	93
3329	98
3330	101
3331	97
3332	81
3333	103
3334	89
3335	96
3336	112
3337	101
3338	85
3339	83
3340	82
3341	80
3342	107
3343	102
3344	90
3345	89
3346	96
3347	95
3348	75
3349	105
3350	93
3351	106
3352	120
3353	102
3354	83
3355	111
3356	97
3357	103
3358	96
3359	89
3360	95
3361	94
3362	98
3363	88
3364	99
3365	95
3366	106
3367	120
3368	119
3369	110
3370	113
3371	125
3372	110
3373	103
3374	99
3375	89
3376	86
3377	80
3378	92
3379	82
3380	125
3381	151
3382	187
3383	280
3384	369
3385	429
3386	466
3387	467
3388	334
3389	242
3390	163
3391	120
3392	112
3393	88
3394	99
3395	84
3396	84
3397	98
3398	102
3399	80
3400	88
3401	105
3402	88
3403	86
3404	95
3405	84
3406	73
3407	98
3408	89
3409	88
3410	88
3411	103
3412	95
3413	108
3414	82
3415	98
3416	86
3417	109
3418	90
3419	101
3420	93
3421	94
3422	79
3423	98
3424	102
3425	93
3426	101
3427	95
3428	87
3429	93
3430	93
3431	84
3432	99
3433	95
3434	94
3435	76
3436	86
3437	85
3438	94
3439	84
3440	84
3441	101
3442	106
3443	97
3444	118
3445	106
3446	116
3447	113
3448	102
3449	85
3450	90
3451	87
3452	94
3453	95
3454	98
3455	80
3456	79
3457	85
3458	76
3459	83
3460	108
3461	90
3462	88
3463	88
3464	87
3465	83
3466	117
3467	94
3468	67
3469	95
3470	100
3471	110
3472	87
3473	102
3474	111
3475	110
3476	90
3477	97
3478	109
3479	93
3480	117
3481	94
3482	94
3483	91
3484	91
3485	81
3486	82
3487	88
3488	91
3489	91
3490	90
3491	91
3492	85
3493	94
3494	70
3495	89
3496	87
3497	104
3498	90
3499	85
3500	100
3501	89
3502	88
3503	101
3504	80
3505	77
3506	85
3507	73
3508	88
3509	99
3510	95
3511	94
3512	87
3513	69
3514	96
3515	89
3516	104
3517	88
3518	85
3519	78
3520	94
3521	76
3522	102
3523	86
3524	98
3525	91
3526	101
3527	88
3528	104
3529	90
3530	117
3531	97
3532	115
3533	101
3534	90
3535	88
3536	98
3537	103
3538	88
3539	93
3540	81
3541	89
3542	115
3543	99
3544	87
3545	98
3546	74
3547	95
3548	84
3549	81
3550	101
3551	100
3552	89
3553	88
3554	95
3555	79
3556	77
3557	93
3558	94
3559	82
3560	87
3561	94
3562	84
3563	88
3564	100
3565	76
3566	71
3567	89
3568	82
3569	82
3570	89
3571	76
3572	81
3573	87
3574	81
3575	77
3576	87
3577	92
3578	98
3579	81
3580	94
3581	76
3582	109
3583	88
3584	76
3585	77
3586	81
3587	95
3588	90
3589	80
3590	87
3591	71
3592	91
3593	85
3594	82
3595	95
3596	74
3597	87
3598	87
3599	88
3600	98
3601	95
3602	105
3603	99
3604	102
3605	86
3606	99
3607	86
3608	74
3609	92
3610	87
3611	107
3612	76
3613	89
3614	99
3615	93
3616	96
3617	92
3618	106
3619	90
3620	88
3621	82
3622	94
3623	96
3624	77
3625	89
3626	92
3627	93
3628	104
3629	124
3630	97
3631	167
3632	306
3633	527
3634	842
3635	1079
3636	1238
3637	1212
3638	1010
3639	681
3640	451
3641	270
3642	162
3643	114
3644	85
3645	76
3646	102
3647	72
3648	95
3649	98
3650	93
3651	100
3652	140
3653	160
3654	233
3655	286
3656	285
3657	276
3658	259
3659	187
3660	146
3661	123
3662	103
3663	78
3664	97
3665	84
3666	94
3667	84
3668	92
3669	82
3670	89
3671	81
3672	111
3673	85
3674	89
3675	73
3676	101
3677	74
3678	95
3679	84
3680	98
3681	87
3682	86
3683	84
3684	95
3685	96
3686	111
3687	99
3688	91
3689	82
3690	93
3691	104
3692	98
3693	104
3694	159
3695	235
3696	320
3697	416
3698	458
3699	399
3700	371
3701	240
3702	193
3703	140
3704	106
3705	88
3706	89
3707	96
3708	101
3709	109
3710	170
3711	238
3712	411
3713	513
3714	703
3715	692
3716	670
3717	511
3718	344
3719	236
3720	165
3721	123
3722	107
3723	90
3724	94
3725	94
3726	101
3727	92
3728	95
3729	82
3730	88
3731	102
3732	105
3733	105
3734	116
3735	103
3736	108
3737	105
3738	76
3739	85
3740	81
3741	92
3742	73
3743	106
3744	88
3745	92
3746	92
3747	98
3748	81
3749	93
3750	77
3751	92
3752	91
3753	102
3754	92
3755	94
3756	73
3757	85
3758	98
3759	104
3760	97
3761	103
3762	102
3763	98
3764	106
3765	100
3766	100
3767	95
3768	82
3769	90
3770	77
3771	80
3772	81
3773	106
3774	98
3775	91
3776	111
3777	95
3778	71
3779	88
3780	90
3781	81
3782	100
3783	106
3784	76
3785	88
3786	81
3787	83
3788	89
3789	95
3790	94
3791	85
3792	89
3793	90
3794	100
3795	83
3796	80
3797	83
3798	75
3799	96
3800	77
3801	92
3802	77
3803	113
3804	86
3805	87
3806	95
3807	102
3808	78
3809	100
3810	96
3811	72
3812	85
3813	91
3814	96
3815	98
3816	83
3817	91
3818	96
3819	85
3820	98
3821	92
3822	97
3823	81
3824	87
3825	76
3826	115
3827	83
3828	80
3829	86
3830	85
3831	97
3832	90
3833	81
3834	89
3835	108
3836	105
3837	103
3838	112
3839	78
3840	82
3841	95
3842	96
3843	116
3844	94
3845	90
3846	105
3847	91
3848	94
3849	100
3850	82
3851	108
3852	95
3853	127
3854	119
3855	100
3856	97
3857	84
3858	76
3859	96
3860	99
3861	91
3862	76
3863	85
3864	94
3865	105
3866	113
3867	83
3868	92
3869	103
3870	83
3871	102
3872	103
3873	92
3874	95
3875	77
3876	92
3877	101
3878	85
3879	83
3880	107
3881	82
3882	85
3883	112
3884	103
3885	106
3886	95
3887	96
3888	93
3889	80
3890	106
3891	91
3892	97
3893	98
3894	110
3895	101
3896	87
3897	106
3898	99
3899	120
3900	109
3901	85
3902	111
3903	109
3904	105
3905	103
3906	99
3907	80
3908	97
3909	96
3910	92
3911	107
3912	92
3913	109
3914	95
3915	88
3916	95
3917	104
3918	92
3919	88
3920	95
3921	90
3922	111
3923	94
3924	95
3925	102
3926	109
3927	96
3928	88
3929	103
3930	79
3931	86
3932	84
3933	81
3934	72
3935	83
3936	95
3937	94
3938	98
3939	93
3940	87
3941	100
3942	92
3943	104
3944	108
3945	97
3946	100
3947	113
3948	105
3949	91
3950	105
3951	90
3952	108
3953	102
3954	100
3955	107
3956	98
3957	83
3958	103
3959	96
3960	98
3961	109
3962	122
3963	120
3964	102
3965	90
3966	107
3967	106
3968	95
3969	97
3970	100
3971	124
3972	156
3973	243
3974	339
3975	433
3976	528
3977	609
3978	623
3979	510
3980	354
3981	269
3982	179
3983	118
3984	101
3985	110
3986	86
3987	101
3988	113
3989	110
3990	80
3991	98
3992	104
3993	90
3994	88
3995	75
3996	90
3997	104
3998	111
3999	110
4000	93
4001	91
4002	92
4003	105
4004	101
4005	92
4006	105
4007	96
4008	96
4009	98
4010	87
4011	95
4012	99
4013	94
4014	84
4015	94
4016	93
4017	94
4018	99
4019	120
4020	102
4021	100
4022	89
4023	85
4024	94
4025	96
4026	102
4027	92
4028	111
4029	83
4030	105
4031	90
4032	99
4033	89
4034	80
4035	98
4036	89
4037	113
4038	110
4039	88
4040	105
4041	101
4042	110
4043	128
4044	107
4045	109
4046	87
4047	120
4048	102
4049	111
4050	137
4051	147
4052	175
4053	193
4054	194
4055	163
4056	140
4057	120
4058	99
4059	99
4060	100
4061	102
4062	117
4063	165
4064	182
4065	195
4066	208
4067	172
4068	147
4069	126
4070	102
4071	100
4072	80
4073	67
4074	68
4075	99
4076	87
4077	86
4078	79
4079	88
4080	66
4081	77
4082	73
4083	79
4084	84
4085	68
4086	84
4087	74
4088	66
4089	94
4090	62
4091	71
4092	85
4093	85
4094	84
4095	59
4096	73
4097	67
4098	73
4099	83
4100	89
4101	79
4102	60
4103	71
4104	70
4105	73
4106	75
4107	80
4108	75
4109	79
4110	70
4111	82
4112	71
4113	81
4114	53
4115	65
4116	62
4117	87
4118	82
4119	86
4120	70
4121	72
4122	72
4123	71
4124	87
4125	69
4126	71
4127	66
4128	69
4129	77
4130	59
4131	73
4132	65
4133	76
4134	72
4135	70
4136	59
4137	73
4138	55
4139	60
4140	88
4141	68
4142	64
4143	68
4144	75
4145	72
4146	59
4147	70
4148	54
4149	59
4150	70
4151	66
4152	77
4153	77
4154	71
4155	52
4156	79
4157	60
4158	64
4159	62
4160	67
4161	80
4162	73
4163	80
4164	103
4165	119
4166	124
4167	151
4168	240
4169	236
4170	230
4171	166
4172	157
4173	106
4174	94
4175	71
4176	66
4177	77
4178	68
4179	64
4180	64
4181	70
4182	76
4183	56
4184	63
4185	67
4186	60
4187	63
4188	56
4189	59
4190	63
4191	59
4192	62
4193	62
4194	75
4195	92
4196	88
4197	107
4198	100
4199	122
4200	138
4201	113
4202	94
4203	85
4204	71
4205	65
4206	78
4207	94
4208	94
4209	116
4210	121
4211	113
4212	120
4213	120
4214	102
4215	89
4216	72
4217	57
4218	49
4219	54
4220	55
4221	59
4222	63
4223	57
4224	41
4225	64
4226	71
4227	52
4228	58
4229	60
4230	66
4231	69
4232	79
4233	72
4234	60
4235	77
4236	70
4237	56
4238	65
4239	62
4240	57
4241	65
4242	53
4243	60
4244	61
4245	54
4246	50
4247	47
4248	55
4249	70
4250	65
4251	56
4252	55
4253	61
4254	50
4255	51
4256	69
4257	50
4258	49
4259	71
4260	41
4261	43
4262	65
4263	57
4264	55
4265	70
4266	60
4267	63
4268	42
4269	45
4270	51
4271	56
4272	67
4273	49
4274	52
4275	38
4276	51
4277	60
4278	59
4279	53
4280	50
4281	59
4282	46
4283	55
4284	51
4285	51
4286	40
4287	44
4288	53
4289	42
4290	40
4291	42
4292	52
4293	50
4294	39
4295	57
4296	34
4297	41
4298	49
4299	44
4300	51
4301	41
4302	40
4303	52
4304	46
4305	58
4306	50
4307	51
4308	64
4309	55
4310	43
4311	55
4312	40
4313	43
4314	39
4315	46
4316	44
4317	42
4318	51
4319	50
4320	47
4321	41
4322	34
4323	23
4324	49
4325	39
4326	32
4327	37
4328	62
4329	42
4330	35
4331	47
4332	42
4333	39
4334	39
4335	41
4336	44
4337	43
4338	47
4339	32
4340	45
4341	51
4342	37
4343	39
4344	40
4345	43
4346	39
4347	43
4348	53
4349	59
4350	41
4351	43
4352	41
4353	36
4354	41
4355	34
4356	36
4357	43
4358	47
4359	42
4360	50
4361	46
4362	49
4363	40
4364	49
4365	54
4366	74
4367	90
4368	158
4369	203
4370	269
4371	257
4372	271
4373	234
4374	197
4375	125
4376	70
4377	62
4378	58
4379	36
4380	39
4381	39
4382	29
4383	41
4384	35
4385	32
4386	43
4387	45
4388	47
4389	41
4390	35
4391	30
4392	40
4393	35
4394	36
4395	28
4396	36
4397	42
4398	40
4399	26
4400	24
4401	33
4402	47
4403	26
4404	36
4405	25
4406	31
4407	33
4408	38
4409	29
4410	33
4411	20
4412	37
4413	44
4414	22
4415	32
4416	38
4417	29
4418	38
4419	37
4420	37
4421	40
4422	29
4423	39
4424	33
4425	42
4426	37
4427	55
4428	63
4429	85
4430	77
4431	78
4432	65
4433	55
4434	43
4435	37
4436	44
4437	22
4438	33
4439	32
4440	33
4441	31
4442	31
4443	33
4444	38
4445	39
4446	41
4447	35
4448	45
4449	49
4450	59
4451	72
4452	91
4453	78
4454	67
4455	79
4456	74
4457	64
4458	46
4459	38
4460	37
4461	46
4462	35
4463	29
4464	36
4465	31
4466	33
4467	27
4468	26
4469	27
4470	33
4471	36
4472	31
4473	32
4474	40
4475	30
4476	27
4477	42
4478	28
4479	34
4480	24
4481	31
4482	23
4483	28
4484	25
4485	30
4486	35
4487	29
4488	29
4489	33
4490	38
4491	34
4492	26
4493	23
4494	23
4495	29
4496	33
4497	32
4498	32
4499	26
4500	30
4501	32
4502	37
4503	24
4504	37
4505	29
4506	31
4507	20
4508	34
4509	23
4510	32
4511	23
4512	26
4513	34
4514	37
4515	25
4516	33
4517	27
4518	31
4519	28
4520	28
4521	28
4522	32
4523	26
4524	23
4525	25
4526	28
4527	42
4528	18
4529	18
4530	37
4531	25
4532	26
4533	34
4534	32
4535	31
4536	34
4537	35
4538	33
4539	34
4540	39
4541	44
4542	51
4543	117
4544	204
4545	297
4546	498
4547	656
4548	743
4549	741
4550	629
4551	465
4552	272
4553	154
4554	89
4555	48
4556	41
4557	34
4558	23
4559	29
4560	40
4561	29
4562	27
4563	27
4564	32
4565	24
4566	34
4567	37
4568	32
4569	30
4570	37
4571	37
4572	29
4573	26
4574	28
4575	21
4576	35
4577	27
4578	28
4579	38
4580	33
4581	30
4582	38
4583	17
4584	27
4585	32
4586	30
4587	26
4588	33
4589	23
4590	31
4591	36
4592	26
4593	22
4594	29
4595	27
4596	30
4597	35
4598	25
4599	24
4600	31
4601	22
4602	26
4603	26
4604	30
4605	25
4606	25
4607	23
4608	31
4609	27
4610	25
4611	20
4612	28
4613	32
4614	21
4615	31
4616	28
4617	28
4618	22
4619	36
4620	26
4621	32
4622	34
4623	26
4624	35
4625	31
4626	30
4627	30
4628	27
4629	29
4630	42
4631	50
4632	124
4633	293
4634	588
4635	1129
4636	1889
4637	2710
4638	3282
4639	3440
4640	3059
4641	2392
4642	1661
4643	898
4644	450
4645	240
4646	91
4647	44
4648	33
4649	18
4650	22
4651	18
4652	16
4653	34
4654	13
4655	12
4656	29
4657	23
4658	28
4659	22
4660	22
4661	26
4662	28
4663	25
4664	25
4665	15
4666	23
4667	25
4668	24
4669	24
4670	12
4671	35
4672	20
4673	18
4674	27
4675	23
4676	31
4677	18
4678	17
4679	30
4680	19
4681	18
4682	28
4683	27
4684	18
4685	13
4686	23
4687	29
4688	24
4689	25
4690	18
4691	25
4692	25
4693	14
4694	19
4695	25
4696	15
4697	23
4698	20
4699	16
4700	20
4701	24
4702	26
4703	22
4704	21
4705	23
4706	12
4707	26
4708	23
4709	25
4710	20
4711	27
4712	21
4713	19
4714	16
4715	27
4716	15
4717	22
4718	26
4719	21
4720	19
4721	17
4722	28
4723	26
4724	18
4725	28
4726	20
4727	21
4728	18
4729	27
4730	20
4731	30
4732	15
4733	22
4734	30
4735	25
4736	28
4737	12
4738	14
4739	16
4740	23
4741	12
4742	20
4743	26
4744	22
4745	23
4746	16
4747	26
4748	18
4749	16
4750	26
4751	24
4752	13
4753	30
4754	14
4755	31
4756	28
4757	16
4758	20
4759	27
4760	22
4761	25
4762	18
4763	22
4764	33
4765	34
4766	25
4767	24
4768	17
4769	21
4770	17
4771	17
4772	20
4773	22
4774	22
4775	25
4776	27
4777	19
4778	21
4779	20
4780	19
4781	25
4782	24
4783	19
4784	21
4785	22
4786	24
4787	21
4788	17
4789	19
4790	22
4791	25
4792	12
4793	25
4794	19
4795	23
4796	26
4797	20
4798	22
4799	18
4800	33
4801	22
4802	18
4803	21
4804	17
4805	21
4806	25
4807	26
4808	23
4809	22
4810	26
4811	31
4812	34
4813	22
4814	35
4815	21
4816	30
4817	35
4818	24
4819	25
4820	23
4821	15
4822	33
4823	18
4824	25
4825	34
4826	37
4827	62
4828	68
4829	76
4830	76
4831	79
4832	74
4833	51
4834	40
4835	41
4836	39
4837	20
4838	24
4839	26
4840	29
4841	19
4842	34
4843	21
4844	32
4845	23
4846	29
4847	30
4848	56
4849	115
4850	193
4851	298
4852	428
4853	427
4854	529
4855	433
4856	332
4857	247
4858	134
4859	81
4860	40
4861	39
4862	26
4863	22
4864	24
4865	26
4866	32
4867	27
4868	26
4869	17
4870	26
4871	23
4872	22
4873	22
4874	19
4875	22
4876	25
4877	23
4878	28
4879	34
4880	29
4881	23
4882	24
4883	24
4884	17
4885	29
4886	20
4887	11
4888	24
4889	20
4890	23
4891	26
4892	18
4893	17
4894	21
4895	21
4896	26
4897	18
4898	19
4899	27
4900	21
4901	20
4902	25
4903	20
4904	18
4905	28
4906	27
4907	21
4908	33
4909	17
4910	25
4911	23
4912	21
4913	29
4914	23
4915	24
4916	29
4917	38
4918	42
4919	59
4920	61
4921	64
4922	58
4923	40
4924	49
4925	44
4926	14
4927	25
4928	18
4929	25
4930	19
4931	14
4932	22
4933	22
4934	22
4935	25
4936	18
4937	25
4938	19
4939	22
4940	26
4941	24
4942	26
4943	20
4944	14
4945	20
4946	19
4947	30
4948	20
4949	23
4950	16
4951	26
4952	29
4953	24
4954	21
4955	30
4956	27
4957	25
4958	17
4959	22
4960	21
4961	26
4962	38
4963	44
4964	57
4965	51
4966	46
4967	41
4968	36
4969	27
4970	17
4971	25
4972	25
4973	20
4974	25
4975	28
4976	36
4977	35
4978	41
4979	41
4980	62
4981	46
4982	49
4983	31
4984	28
4985	33
4986	44
4987	24
4988	27
4989	32
4990	27
4991	21
4992	23
4993	13
4994	21
4995	24
4996	17
4997	20
4998	15
4999	23
5000	20
5001	32
5002	16
5003	15
5004	29
5005	16
5006	26
5007	23
5008	20
5009	18
5010	29
5011	13
5012	16
5013	13
5014	20
5015	25
5016	24
5017	23
5018	21
5019	25
5020	26
5021	25
5022	25
5023	18
5024	29
5025	19
5026	20
5027	14
5028	17
5029	29
5030	19
5031	28
5032	20
5033	23
5034	13
5035	25
5036	20
5037	23
5038	25
5039	25
5040	20
5041	22
5042	35
5043	21
5044	21
5045	20
5046	24
5047	26
5048	21
5049	23
5050	19
5051	19
5052	31
5053	20
5054	22
5055	17
5056	24
5057	24
5058	32
5059	22
5060	25
5061	28
5062	23
5063	23
5064	22
5065	28
5066	22
5067	28
5068	19
5069	19
5070	23
5071	25
5072	22
5073	25
5074	31
5075	20
5076	22
5077	17
5078	23
5079	29
5080	28
5081	44
5082	30
5083	47
5084	48
5085	50
5086	41
5087	55
5088	38
5089	40
5090	32
5091	31
5092	19
5093	22
5094	28
5095	13
5096	23
5097	17
5098	22
5099	23
5100	21
5101	32
5102	23
5103	25
5104	23
5105	17
5106	21
5107	24
5108	33
5109	22
5110	16
5111	22
5112	28
5113	21
5114	25
5115	27
5116	16
5117	18
5118	20
5119	24
5120	23
5121	24
5122	22
5123	24
5124	18
5125	20
5126	24
5127	24
5128	19
5129	23
5130	29
5131	20
5132	22
5133	22
5134	20
5135	27
5136	28
5137	19
5138	24
5139	21
5140	19
5141	18
5142	33
5143	19
5144	27
5145	30
5146	17
5147	21
5148	13
5149	17
5150	24
5151	28
5152	12
5153	26
5154	21
5155	24
5156	23
5157	26
5158	28
5159	29
5160	15
5161	17
5162	32
5163	27
5164	26
5165	31
5166	24
5167	22
5168	29
5169	25
5170	26
5171	30
5172	16
5173	23
5174	22
5175	22
5176	21
5177	22
5178	23
5179	16
5180	14
5181	28
5182	15
5183	20
5184	16
5185	14
5186	26
5187	19
5188	17
5189	26
5190	24
5191	18
5192	19
5193	19
5194	19
5195	30
5196	15
5197	24
5198	19
5199	22
5200	19
5201	16
5202	19
5203	13
5204	25
5205	15
5206	28
5207	16
5208	18
5209	19
5210	17
5211	26
5212	20
5213	18
5214	24
5215	15
5216	14
5217	14
5218	25
5219	13
5220	22
5221	25
5222	14
5223	21
5224	19
5225	13
5226	12
5227	13
5228	14
5229	25
5230	13
5231	16
5232	20
5233	18
5234	16
5235	24
5236	16
5237	15
5238	24
5239	14
5240	16
5241	20
5242	17
5243	14
5244	19
5245	20
5246	12
5247	10
5248	11
5249	16
5250	15
5251	15
5252	18
5253	15
5254	17
5255	17
5256	20
5257	14
5258	18
5259	12
5260	21
5261	24
5262	19
5263	18
5264	17
5265	18
5266	13
5267	16
5268	21
5269	13
5270	14
5271	15
5272	16
5273	20
5274	26
5275	32
5276	33
5277	30
5278	35
5279	22
5280	18
5281	19
5282	13
5283	21
5284	17
5285	15
5286	18
5287	9
5288	15
5289	23
5290	22
5291	9
5292	26
5293	37
5294	27
5295	35
5296	23
5297	34
5298	22
5299	15
5300	11
5301	10
5302	19
5303	13
5304	17
5305	16
5306	19
5307	18
5308	13
5309	19
5310	19
5311	11
5312	13
5313	12
5314	18
5315	15
5316	16
5317	11
5318	15
5319	16
5320	13
5321	18
5322	10
5323	21
5324	14
5325	20
5326	11
5327	16
5328	11
5329	11
5330	13
5331	20
5332	23
5333	17
5334	19
5335	12
5336	10
5337	11
5338	11
5339	13
5340	16
5341	13
5342	12
5343	20
5344	13
5345	14
5346	20
5347	22
5348	13
5349	9
5350	12
5351	9
5352	16
5353	14
5354	19
5355	20
5356	11
5357	22
5358	15
5359	17
5360	14
5361	12
5362	10
5363	16
5364	18
5365	9
5366	14
5367	10
5368	8
5369	11
5370	14
5371	10
5372	9
5373	13
5374	15
5375	11
5376	8
5377	11
5378	14
5379	16
5380	7
5381	21
5382	17
5383	20
5384	25
5385	24
5386	18
5387	18
5388	24
5389	20
5390	19
5391	6
5392	14
5393	10
5394	6
5395	14
5396	20
5397	16
5398	15
5399	15
5400	14
5401	12
5402	10
5403	15
5404	8
5405	15
5406	7
5407	11
5408	9
5409	15
5410	11
5411	12
5412	10
5413	17
5414	15
5415	9
5416	14
5417	13
5418	11
5419	14
5420	14
5421	18
5422	8
5423	3
5424	11
5425	13
5426	15
5427	17
5428	16
5429	14
5430	7
5431	10
5432	10
5433	5
5434	9
5435	15
5436	11
5437	13
5438	12
5439	11
5440	10
5441	13
5442	9
5443	11
5444	10
5445	8
5446	11
5447	12
5448	14
5449	9
5450	9
5451	19
5452	9
5453	14
5454	7
5455	15
5456	8
5457	10
5458	11
5459	11
5460	9
5461	9
5462	11
5463	10
5464	11
5465	7
5466	13
5467	11
5468	9
5469	12
5470	14
5471	7
5472	8
5473	11
5474	14
5475	13
5476	13
5477	13
5478	17
5479	12
5480	16
5481	24
5482	17
5483	24
5484	11
5485	2
5486	12
5487	10
5488	4
5489	8
5490	10
5491	12
5492	12
5493	10
5494	8
5495	10
5496	7
5497	7
5498	14
5499	6
5500	8
5501	9
5502	8
5503	7
5504	12
5505	8
5506	9
5507	10
5508	7
5509	5
5510	6
5511	10
5512	7
5513	13
5514	8
5515	12
5516	14
5517	16
5518	9
5519	14
5520	6
5521	7
5522	6
5523	2
5524	5
5525	9
5526	5
5527	7
5528	5
5529	10
5530	7
5531	21
5532	21
5533	13
5534	32
5535	21
5536	26
5537	11
5538	11
5539	9
5540	12
5541	6
5542	11
5543	10
5544	9
5545	14
5546	9
5547	15
5548	13
5549	15
5550	18
5551	30
5552	66
5553	98
5554	145
5555	218
5556	189
5557	202
5558	185
5559	162
5560	96
5561	63
5562	45
5563	19
5564	12
5565	10
5566	6
5567	14
5568	7
5569	10
5570	10
5571	4
5572	9
5573	7
5574	3
5575	7
5576	10
5577	6
5578	11
5579	9
5580	3
5581	4
5582	7
5583	10
5584	6
5585	7
5586	5
5587	4
5588	10
5589	6
5590	5
5591	6
5592	6
5593	7
5594	7
5595	6
5596	6
5597	9
5598	4
5599	5
5600	7
5601	8
5602	8
5603	2
5604	10
5605	12
5606	9
5607	11
5608	9
5609	3
5610	5
5611	10
5612	5
5613	5
5614	11
5615	5
5616	8
5617	3
5618	10
5619	11
5620	10
5621	13
5622	3
5623	7
5624	11
5625	6
5626	8
5627	10
5628	3
5629	12
5630	14
5631	16
5632	12
5633	12
5634	14
5635	7
5636	8
5637	6
5638	10
5639	8
5640	12
5641	7
5642	13
5643	6
5644	9
5645	7
5646	7
5647	8
5648	10
5649	6
5650	13
5651	6
5652	7
5653	6
5654	8
5655	9
5656	9
5657	7
5658	5
5659	11
5660	5
5661	6
5662	10
5663	4
5664	7
5665	6
5666	7
5667	9
5668	6
5669	13
5670	9
5671	11
5672	7
5673	6
5674	6
5675	7
5676	6
5677	8
5678	10
5679	13
5680	4
5681	6
5682	2
5683	8
5684	7
5685	5
5686	7
5687	10
5688	11
5689	14
5690	12
5691	9
5692	5
5693	8
5694	6
5695	5
5696	7
5697	10
5698	8
5699	9
5700	5
5701	7
5702	9
5703	9
5704	15
5705	6
5706	7
5707	6
5708	6
5709	5
5710	4
5711	8
5712	4
5713	6
5714	9
5715	6
5716	10
5717	5
5718	13
5719	7
5720	5
5721	4
5722	5
5723	5
5724	10
5725	7
5726	11
5727	5
5728	14
5729	10
5730	10
5731	4
5732	4
5733	5
5734	8
5735	6
5736	5
5737	13
5738	8
5739	8
5740	9
5741	4
5742	10
5743	5
5744	5
5745	17
5746	11
5747	13
5748	14
5749	17
5750	25
5751	15
5752	8
5753	16
5754	12
5755	8
5756	9
5757	11
5758	11
5759	6
5760	11
5761	9
5762	8
5763	5
5764	5
5765	11
5766	4
5767	8
5768	5
5769	6
5770	20
5771	37
5772	89
5773	137
5774	308
5775	437
5776	615
5777	807
5778	885
5779	770
5780	685
5781	512
5782	330
5783	181
5784	100
5785	51
5786	20
5787	7
5788	11
5789	12
5790	9
5791	8
5792	7
5793	5
5794	9
5795	6
5796	4
5797	6
5798	4
5799	6
5800	10
5801	8
5802	7
5803	4
5804	5
5805	9
5806	2
5807	6
5808	7
5809	5
5810	2
5811	8
5812	5
5813	10
5814	6
5815	7
5816	6
5817	3
5818	5
5819	1
5820	7
5821	3
5822	7
5823	11
5824	4
5825	2
5826	8
5827	2
5828	8
5829	8
5830	5
5831	2
5832	6
5833	5
5834	7
5835	4
5836	4
5837	4
5838	3
5839	4
5840	2
5841	4
5842	7
5843	5
5844	7
5845	1
5846	0
5847	6
5848	4
5849	8
5850	7
5851	5
5852	7
5853	4
5854	3
5855	8
5856	6
5857	3
5858	3
5859	4
5860	2
5861	2
5862	2
5863	5
5864	8
5865	5
5866	3
5867	6
5868	4
5869	7
5870	5
5871	5
5872	3
5873	5
5874	0
5875	3
5876	5
5877	4
5878	1
5879	5
5880	3
5881	3
5882	2
5883	4
5884	6
5885	6
5886	1
5887	3
5888	5
5889	6
5890	0
5891	2
5892	7
5893	4
5894	3
5895	4
5896	7
5897	7
5898	8
5899	8
5900	5
5901	3
5902	8
5903	5
5904	2
5905	3
5906	4
5907	3
5908	8
5909	5
5910	8
5911	4
5912	4
5913	4
5914	3
5915	5
5916	5
5917	2
5918	2
5919	1
5920	7
5921	6
5922	9
5923	9
5924	5
5925	6
5926	7
5927	5
5928	2
5929	3
5930	3
5931	4
5932	4
5933	2
5934	2
5935	7
5936	3
5937	11
5938	3
5939	6
5940	6
5941	6
5942	8
5943	6
5944	5
5945	1
5946	5
5947	3
5948	1
5949	4
5950	3
5951	6
5952	4
5953	6
5954	7
5955	3
5956	6
5957	2
5958	3
5959	7
5960	1
5961	4
5962	6
5963	2
5964	3
5965	5
5966	3
5967	3
5968	6
5969	2
5970	3
5971	7
5972	3
5973	4
5974	2
5975	1
5976	4
5977	6
5978	3
5979	4
5980	7
5981	7
5982	7
5983	7
5984	4
5985	8
5986	2
5987	5
5988	7
5989	2
5990	5
5991	3
5992	5
5993	5
5994	2
5995	5
5996	0
5997	3
5998	2
5999	1
6000	1
6001	5
6002	4
6003	5
6004	8
6005	22
6006	29
6007	37
6008	47
6009	58
6010	48
6011	54
6012	35
6013	29
6014	18
6015	9
6016	7
6017	6
6018	5
6019	4
6020	3
6021	2
6022	6
6023	3
6024	4
6025	2
6026	4
6027	3
6028	1
6029	3
6030	4
6031	4
6032	1
6033	0
6034	1
6035	6
6036	5
6037	5
6038	3
6039	4
6040	4
6041	3
6042	1
6043	2
6044	4
6045	3
6046	1
6047	3
6048	3
6049	4
6050	5
6051	2
6052	3
6053	2
6054	4
6055	4
6056	7
6057	3
6058	4
6059	6
6060	0
6061	4
6062	1
6063	3
6064	5
6065	4
6066	4
6067	1
6068	1
6069	3
6070	3
6071	4
6072	3
6073	5
6074	2
6075	3
6076	5
6077	1
6078	4
6079	2
6080	2
6081	2
6082	4
6083	0
6084	3
6085	0
6086	2
6087	0
6088	2
6089	2
6090	2
6091	2
6092	2
6093	1
6094	0
6095	4
6096	4
6097	2
6098	2
6099	3
6100	2
6101	5
6102	2
6103	5
6104	4
6105	4
6106	5
6107	2
6108	6
6109	7
6110	2
6111	3
6112	4
6113	1
6114	2
6115	1
6116	5
6117	4
6118	2
6119	3
6120	3
6121	2
6122	2
6123	0
6124	1
6125	1
6126	5
6127	2
6128	1
6129	1
6130	0
6131	2
6132	2
6133	1
6134	1
6135	2
6136	2
6137	1
6138	3
6139	1
6140	1
6141	1
6142	1
6143	7
6144	4
6145	3
6146	1
6147	2
6148	3
6149	2
6150	3
6151	2
6152	2
6153	1
6154	4
6155	3
6156	3
6157	0
6158	2
6159	2
6160	0
6161	1
6162	0
6163	2
6164	4
6165	1
6166	2
6167	3
6168	5
6169	1
6170	0
6171	0
6172	1
6173	2
6174	4
6175	2
6176	3
6177	2
6178	3
6179	1
6180	3
6181	2
6182	1
6183	1
6184	4
6185	1
6186	2
6187	2
6188	0
6189	2
6190	0
6191	1
6192	0
6193	4
6194	2
6195	2
6196	0
6197	1
6198	2
6199	2
6200	1
6201	1
6202	4
6203	6
6204	1
6205	2
6206	0
6207	3
6208	7
6209	1
6210	2
6211	0
6212	3
6213	3
6214	3
6215	3
6216	1
6217	4
6218	0
6219	2
6220	1
6221	3
6222	4
6223	3
6224	3
6225	1
6226	4
6227	3
6228	2
6229	5
6230	0
6231	7
6232	3
6233	1
6234	1
6235	2
6236	3
6237	1
6238	1
6239	1
6240	1
6241	1
6242	0
6243	1
6244	2
6245	1
6246	1
6247	1
6248	1
6249	0
6250	1
6251	0
6252	1
6253	4
6254	4
6255	1
6256	0
6257	0
6258	1
6259	3
6260	1
6261	0
6262	0
6263	1
6264	5
6265	0
6266	3
6267	0
6268	0
6269	1
6270	2
6271	1
6272	0
6273	1
6274	0
6275	1
6276	2
6277	5
6278	2
6279	0
6280	0
6281	0
6282	1
6283	0
6284	3
6285	0
6286	1
6287	2
6288	1
6289	2
6290	2
6291	2
6292	0
6293	2
6294	3
6295	0
6296	3
6297	2
6298	0
6299	1
6300	1
6301	2
6302	5
6303	1
6304	1
6305	1
6306	3
6307	0
6308	3
6309	4
6310	2
6311	2
6312	2
6313	3
6314	2
6315	1
6316	4
6317	2
6318	2
6319	1
6320	3
6321	2
6322	4
6323	3
6324	2
6325	0
6326	0
6327	1
6328	4
6329	0
6330	3
6331	3
6332	1
6333	3
6334	2
6335	4
6336	2
6337	2
6338	3
6339	1
6340	1
6341	3
6342	0
6343	3
6344	3
6345	3
6346	1
6347	2
6348	0
6349	1
6350	1
6351	3
6352	4
6353	3
6354	0
6355	0
6356	5
6357	2
6358	1
6359	0
6360	1
6361	3
6362	1
6363	2
6364	4
6365	1
6366	2
6367	1
6368	1
6369	3
6370	1
6371	2
6372	1
6373	1
6374	1
6375	2
6376	0
6377	0
6378	0
6379	0
6380	1
6381	3
6382	4
6383	0
6384	0
6385	2
6386	0
6387	2
6388	1
6389	2
6390	1
6391	2
6392	1
6393	2
6394	2
6395	0
6396	0
6397	1
6398	3
6399	1
6400	3
6401	8
6402	12
6403	20
6404	45
6405	76
6406	114
6407	174
6408	205
6409	243
6410	267
6411	206
6412	140
6413	127
6414	71
6415	39
6416	15
6417	6
6418	4
6419	1
6420	0
6421	0
6422	1
6423	1
6424	2
6425	3
6426	3
6427	3
6428	1
6429	0
6430	1
6431	4
6432	2
6433	3
6434	2
6435	1
6436	5
6437	4
6438	2
6439	2
6440	1
6441	0
6442	0
6443	0
6444	2
6445	1
6446	0
6447	1
6448	1
6449	1
6450	1
6451	1
6452	0
6453	0
6454	2
6455	1
6456	1
6457	2
6458	2
6459	0
6460	0
6461	0
6462	1
6463	4
6464	1
6465	2
6466	2
6467	3
6468	2
6469	2
6470	0
6471	1
6472	0
6473	2
6474	0
6475	2
6476	3
6477	2
6478	1
6479	2
6480	0
6481	1
6482	0
6483	1
6484	0
6485	2
6486	0
6487	0
6488	1
6489	0
6490	0
6491	2
6492	1
6493	0
6494	1
6495	0
6496	1
6497	1
6498	3
6499	2
6500	2
6501	2
6502	3
6503	2
6504	1
6505	1
6506	3
6507	1
6508	1
6509	1
6510	3
6511	1
6512	1
6513	0
6514	1
6515	1
6516	1
6517	2
6518	0
6519	1
6520	2
6521	0
6522	2
6523	0
6524	1
6525	0
6526	1
6527	0
6528	0
6529	1
6530	0
6531	2
6532	0
6533	0
6534	0
6535	1
6536	1
6537	3
6538	1
6539	3
6540	0
6541	0
6542	3
6543	2
6544	0
6545	1
6546	2
6547	2
6548	1
6549	0
6550	1
6551	0
6552	2
6553	3
6554	1
6555	2
6556	5
6557	1
6558	5
6559	2
6560	4
6561	5
6562	0
6563	2
6564	2
6565	2
6566	2
6567	2
6568	1
6569	1
6570	1
6571	1
6572	2
6573	0
6574	0
6575	0
6576	4
6577	0
6578	0
6579	1
6580	2
6581	2
6582	0
6583	0
6584	0
6585	0
6586	0
6587	0
6588	1
6589	0
6590	0
6591	0
6592	1
6593	0
6594	0
6595	0
6596	0
6597	1
6598	0
6599	0
6600	1
6601	0
6602	2
6603	0
6604	0
6605	2
6606	0
6607	0
6608	2
6609	0
6610	0
6611	0
6612	0
6613	3
6614	2
6615	1
6616	1
6617	2
6618	0
6619	4
6620	1
6621	0
6622	1
6623	2
6624	0
6625	0
6626	0
6627	0
6628	0
6629	1
6630	1
6631	0
6632	0
6633	1
6634	0
6635	0
6636	0
6637	2
6638	0
6639	3
6640	2
6641	2
6642	1
6643	2
6644	3
6645	0
6646	0
6647	0
6648	0
6649	3
6650	1
6651	0
6652	0
6653	3
6654	0
6655	0
6656	2
6657	1
6658	0
6659	0
6660	0
6661	2
6662	3
6663	0
6664	1
6665	0
6666	1
6667	0
6668	0
6669	0
6670	1
6671	1
6672	2
6673	1
6674	4
6675	0
6676	0
6677	2
6678	0
6679	2
6680	1
6681	1
6682	0
6683	0
6684	2
6685	2
6686	4
6687	0
6688	1
6689	0
6690	1
6691	2
6692	0
6693	1
6694	1
6695	1
6696	0
6697	0
6698	0
6699	1
6700	1
6701	0
6702	3
6703	0
6704	0
6705	1
6706	1
6707	1
6708	1
6709	0
6710	2
6711	1
6712	0
6713	2
6714	0
6715	0
6716	0
6717	1
6718	1
6719	2
6720	0
6721	1
6722	1
6723	0
6724	1
6725	2
6726	1
6727	0
6728	1
6729	1
6730	1
6731	0
6732	1
6733	1
6734	0
6735	0
6736	2
6737	0
6738	3
6739	0
6740	1
6741	1
6742	2
6743	1
6744	0
6745	0
6746	0
6747	1
6748	1
6749	2
6750	0
6751	0
6752	2
6753	0
6754	0
6755	2
6756	1
6757	0
6758	2
6759	1
6760	1
6761	0
6762	0
6763	0
6764	1
6765	0
6766	1
6767	0
6768	1
6769	0
6770	1
6771	2
6772	2
6773	1
6774	1
6775	2
6776	1
6777	0
6778	0
6779	0
6780	1
6781	2
6782	1
6783	1
6784	0
6785	0
6786	1
6787	2
6788	1
6789	0
6790	0
6791	0
6792	0
6793	0
6794	0
6795	2
6796	0
6797	0
6798	0
6799	0
6800	1
6801	0
6802	1
6803	2
6804	1
6805	0
6806	0
6807	0
6808	2
6809	1
6810	1
6811	0
6812	1
6813	1
6814	1
6815	0
6816	2
6817	2
6818	1
6819	1
6820	0
6821	1
6822	1
6823	1
6824	0
6825	2
6826	2
6827	0
6828	1
6829	1
6830	0
6831	1
6832	3
6833	0
6834	3
6835	0
6836	3
6837	6
6838	6
6839	4
6840	22
6841	23
6842	23
6843	23
6844	16
6845	10
6846	6
6847	5
6848	4
6849	1
6850	0
6851	0
6852	2
6853	0
6854	0
6855	1
6856	1
6857	3
6858	0
6859	0
6860	0
6861	1
6862	0
6863	0
6864	0
6865	1
6866	0
6867	0
6868	1
6869	1
6870	1
6871	2
6872	0
6873	1
6874	2
6875	0
6876	1
6877	1
6878	0
6879	1
6880	1
6881	0
6882	1
6883	1
6884	1
6885	2
6886	3
6887	1
6888	2
6889	2
6890	0
6891	1
6892	1
6893	0
6894	0
6895	2
6896	0
6897	0
6898	0
6899	0
6900	0
6901	0
6902	1
6903	1
6904	0
6905	1
6906	0
6907	0
6908	2
6909	1
6910	0
6911	1
6912	1
6913	1
6914	1
6915	0
6916	0
6917	1
6918	1
6919	1
6920	0
6921	1
6922	0
6923	0
6924	1
6925	1
6926	0
6927	0
6928	0
6929	0
6930	0
6931	1
6932	0
6933	2
6934	0
6935	0
6936	2
6937	1
6938	0
6939	1
6940	1
6941	2
6942	0
6943	1
6944	0
6945	1
6946	0
6947	4
6948	1
6949	0
6950	0
6951	1
6952	0
6953	0
6954	0
6955	0
6956	1
6957	1
6958	1
6959	0
6960	0
6961	3
6962	1
6963	1
6964	0
6965	0
6966	0
6967	0
6968	2
6969	2
6970	0
6971	0
6972	1
6973	0
6974	0
6975	1
6976	1
6977	1
6978	0
6979	0
6980	0
6981	0
6982	1
6983	0
6984	0
6985	0
6986	2
6987	2
6988	0
6989	0
6990	3
6991	0
6992	0
6993	0
6994	0
6995	0
6996	1
6997	3
6998	0
6999	1
7000	2
7001	0
7002	1
7003	2
7004	0
7005	0
7006	0
7007	0
7008	0
7009	1
7010	0
7011	2
7012	1
7013	0
7014	0
7015	0
7016	0
7017	0
7018	1
7019	1
7020	1
7021	0
7022	0
7023	0
7024	0
7025	0
7026	0
7027	0
7028	1
7029	0
7030	1
7031	0
7032	0
7033	1
7034	1
7035	0
7036	0
7037	2
7038	3
7039	0
7040	0
7041	0
7042	2
7043	0
7044	1
7045	1
7046	6
7047	3
7048	6
7049	3
7050	8
7051	6
7052	2
7053	3
7054	2
7055	3
7056	1
7057	0
7058	1
7059	1
7060	2
7061	3
7062	0
7063	1
7064	0
7065	2
7066	1
7067	0
7068	0
7069	0
7070	1
7071	1
7072	1
7073	0
7074	0
7075	2
7076	0
7077	0
7078	0
7079	0
7080	0
7081	1
7082	3
7083	0
7084	0
7085	0
7086	1
7087	0
7088	1
7089	0
7090	0
7091	1
7092	2
7093	1
7094	0
7095	1
7096	0
7097	0
7098	0
7099	0
7100	0
7101	0
7102	0
7103	1
7104	0
7105	1
7106	0
7107	2
7108	0
7109	2
7110	1
7111	0
7112	0
7113	0
7114	1
7115	2
7116	0
7117	0
7118	0
7119	1
7120	0
7121	1
7122	0
7123	0
7124	0
7125	1
7126	1
7127	2
7128	0
7129	0
7130	0
7131	1
7132	1
7133	1
7134	1
7135	0
7136	1
7137	3
7138	2
7139	1
7140	2
7141	2
7142	0
7143	1
7144	0
7145	1
7146	1
7147	0
7148	1
7149	0
7150	0
7151	0
7152	1
7153	0
7154	0
7155	0
7156	1
7157	0
7158	2
7159	0
7160	1
7161	0
7162	1
7163	1
7164	1
7165	0
7166	1
7167	1
7168	0
7169	1
7170	0
7171	0
7172	0
7173	2
7174	0
7175	0
7176	2
7177	0
7178	1
7179	1
7180	2
7181	0
7182	0
7183	0
7184	0
7185	0
7186	0
7187	1
7188	1
7189	1
7190	2
7191	0
7192	0
7193	0
7194	0
7195	0
7196	1
7197	0
7198	0
7199	0
7200	0
7201	3
7202	1
7203	1
7204	0
7205	1
7206	1
7207	2
7208	1
7209	0
7210	0
7211	0
7212	0
7213	0
7214	1
7215	1
7216	0
7217	1
7218	1
7219	1
7220	0
7221	1
7222	2
7223	1
7224	1
7225	1
7226	0
7227	1
7228	0
7229	0
7230	0
7231	1
7232	2
7233	0
7234	0
7235	0
7236	0
7237	0
7238	2
7239	1
7240	1
7241	3
7242	6
7243	1
7244	7
7245	4
7246	2
7247	5
7248	0
7249	3
7250	0
7251	0
7252	1
7253	0
7254	0
7255	0
7256	2
7257	0
7258	0
7259	1
7260	0
7261	0
7262	0
7263	0
7264	1
7265	0
7266	2
7267	1
7268	0
7269	1
7270	0
7271	0
7272	1
7273	0
7274	1
7275	0
7276	0
7277	1
7278	0
7279	1
7280	0
7281	1
7282	2
7283	1
7284	3
7285	1
7286	1
7287	2
7288	2
7289	0
7290	2
7291	1
7292	0
7293	0
7294	0
7295	0
7296	0
7297	0
7298	0
7299	1
7300	0
7301	1
7302	0
7303	0
7304	0
7305	0
7306	1
7307	0
7308	1
7309	0
7310	0
7311	0
7312	0
7313	0
7314	0
7315	1
7316	0
7317	1
7318	1
7319	1
7320	0
7321	0
7322	1
7323	0
7324	0
7325	0
7326	0
7327	0
7328	0
7329	0
7330	1
7331	0
7332	0
7333	0
7334	0
7335	0
7336	1
7337	0
7338	0
7339	0
7340	2
7341	0
7342	0
7343	1
7344	0
7345	2
7346	0
7347	0
7348	0
7349	0
7350	0
7351	0
7352	0
7353	2
7354	0
7355	0
7356	1
7357	0
7358	1
7359	0
7360	0
7361	0
7362	2
7363	0
7364	0
7365	0
7366	0
7367	0
7368	3
7369	0
7370	3
7371	3
7372	0
7373	0
7374	1
7375	0
7376	1
7377	0
7378	1
7379	0
7380	0
7381	0
7382	0
7383	0
7384	0
7385	0
7386	0
7387	0
7388	0
7389	0
7390	0
7391	3
7392	2
7393	1
7394	2
7395	0
7396	1
7397	1
7398	0
7399	0
7400	0
7401	0
7402	0
7403	0
7404	0
7405	0
7406	0
7407	0
7408	0
7409	0
7410	0
7411	0
7412	0
7413	0
7414	0
7415	0
7416	1
7417	0
7418	2
7419	0
7420	1
7421	0
7422	0
7423	0
7424	0
7425	0
7426	0
7427	1
7428	2
7429	0
7430	2
7431	0
7432	1
7433	0
7434	1
7435	0
7436	0
7437	0
7438	2
7439	2
7440	0
7441	0
7442	1
7443	0
7444	1
7445	0
7446	0
7447	0
7448	0
7449	0
7450	0
7451	1
7452	0
7453	1
7454	0
7455	0
7456	0
7457	0
7458	1
7459	0
7460	0
7461	1
7462	0
7463	0
7464	0
7465	2
7466	1
7467	0
7468	1
7469	0
7470	2
7471	1
7472	0
7473	0
7474	0
7475	0
7476	1
7477	0
7478	1
7479	0
7480	2
7481	0
7482	1
7483	0
7484	1
7485	0
7486	0
7487	0
7488	1
7489	1
7490	1
7491	0
7492	0
7493	0
7494	1
7495	0
7496	1
7497	0
7498	1
7499	1
7500	0
7501	0
7502	2
7503	0
7504	1
7505	1
7506	0
7507	1
7508	0
7509	1
7510	0
7511	0
7512	0
7513	0
7514	0
7515	0
7516	0
7517	0
7518	0
7519	0
7520	0
7521	0
7522	0
7523	1
7524	1
7525	0
7526	0
7527	3
7528	2
7529	2
7530	1
7531	0
7532	1
7533	4
7534	1
7535	2
7536	0
7537	0
7538	0
7539	0
7540	0
7541	0
7542	0
7543	0
7544	0
7545	0
7546	0
7547	0
7548	0
7549	0
7550	0
7551	2
7552	0
7553	0
7554	0
7555	1
7556	1
7557	0
7558	2
7559	0
7560	0
7561	0
7562	0
7563	1
7564	0
7565	1
7566	0
7567	1
7568	0
7569	1
7570	1
7571	0
7572	1
7573	1
7574	2
7575	0
7576	0
7577	1
7578	1
7579	0
7580	0
7581	0
7582	0
7583	1
7584	1
7585	0
7586	1
7587	1
7588	0
7589	0
7590	0
7591	0
7592	0
7593	1
7594	0
7595	2
7596	1
7597	0
7598	1
7599	0
7600	0
7601	1
7602	0
7603	1
7604	1
7605	1
7606	1
7607	0
7608	0
7609	1
7610	0
7611	0
7612	0
7613	0
7614	1
7615	0
7616	0
7617	1
7618	0
7619	0
7620	0
7621	1
7622	1
7623	0
7624	1
7625	0
7626	0
7627	0
7628	1
7629	0
7630	0
7631	0
7632	0
7633	2
7634	2
7635	3
7636	2
7637	1
7638	3
7639	1
7640	2
7641	3
7642	0
7643	0
7644	0
7645	0
7646	1
7647	0
7648	0
7649	1
7650	0
7651	0
7652	0
7653	1
7654	2
7655	1
7656	2
7657	1
7658	0
7659	0
7660	0
7661	0
7662	0
7663	0
7664	0
7665	0
7666	0
7667	0
7668	1
7669	1
7670	0
7671	0
7672	0
7673	0
7674	0
7675	0
7676	0
7677	0
7678	0
7679	0
7680	1
7681	0
7682	0
7683	1
7684	0
7685	3
7686	0
7687	0
7688	1
7689	0
7690	0
7691	0
7692	0
7693	0
7694	0
7695	0
7696	0
7697	0
7698	0
7699	0
7700	0
7701	0
7702	2
7703	0
7704	1
7705	1
7706	0
7707	1
7708	0
7709	0
7710	1
7711	0
7712	1
7713	0
7714	0
7715	1
7716	1
7717	0
7718	0
7719	1
7720	0
7721	0
7722	1
7723	0
7724	0
7725	0
7726	1
7727	0
7728	0
7729	0
7730	0
7731	0
7732	0
7733	0
7734	1
7735	0
7736	0
7737	1
7738	1
7739	1
7740	0
7741	1
7742	0
7743	0
7744	0
7745	1
7746	0
7747	0
7748	1
7749	1
7750	0
7751	0
7752	0
7753	0
7754	0
7755	0
7756	1
7757	1
7758	0
7759	0
7760	1
7761	1
7762	0
7763	0
7764	1
7765	0
7766	0
7767	0
7768	0
7769	0
7770	0
7771	0
7772	0
7773	0
7774	0
7775	1
7776	1
7777	0
7778	1
7779	0
7780	1
7781	1
7782	0
7783	1
7784	1
7785	5
7786	4
7787	3
7788	1
7789	2
7790	0
7791	0
7792	0
7793	1
7794	1
7795	0
7796	1
7797	0
7798	0
7799	0
7800	0
7801	1
7802	2
7803	0
7804	1
7805	1
7806	1
7807	0
7808	0
7809	0
7810	0
7811	1
7812	1
7813	0
7814	0
7815	1
7816	0
7817	1
7818	0
7819	1
7820	1
7821	0
7822	0
7823	0
7824	0
7825	0
7826	1
7827	0
7828	0
7829	0
7830	0
7831	1
7832	0
7833	1
7834	0
7835	2
7836	1
7837	1
7838	0
7839	0
7840	2
7841	0
7842	1
7843	0
7844	1
7845	2
7846	0
7847	0
7848	2
7849	0
7850	0
7851	1
7852	0
7853	0
7854	0
7855	1
7856	0
7857	0
7858	1
7859	1
7860	0
7861	0
7862	0
7863	0
7864	0
7865	0
7866	1
7867	1
7868	0
7869	0
7870	1
7871	1
7872	0
7873	2
7874	1
7875	0
7876	0
7877	0
7878	1
7879	0
7880	0
7881	1
7882	1
7883	0
7884	0
7885	0
7886	0
7887	0
7888	0
7889	0
7890	0
7891	0
7892	0
7893	0
7894	0
7895	0
7896	0
7897	0
7898	1
7899	1
7900	0
7901	0
7902	0
7903	0
7904	1
7905	1
7906	0
7907	0
7908	0
7909	0
7910	0
7911	0
7912	1
7913	0
7914	0
7915	0
7916	0
7917	1
7918	1
7919	0
7920	0
7921	0
7922	0
7923	0
7924	2
7925	0
7926	0
7927	1
7928	1
7929	0
7930	0
7931	0
7932	0
7933	0
7934	0
7935	0
7936	0
7937	0
7938	1
7939	0
7940	0
7941	0
7942	0
7943	0
7944	0
7945	0
7946	0
7947	0
7948	0
7949	0
7950	0
7951	0
7952	0
7953	0
7954	1
7955	0
7956	0
7957	0
7958	0
7959	0
7960	1
7961	1
7962	1
7963	0
7964	0
7965	1
7966	0
7967	3
7968	0
7969	1
7970	0
7971	0
7972	0
7973	1
7974	1
7975	0
7976	2
7977	1
7978	4
7979	3
7980	2
7981	2
7982	4
7983	3
7984	2
7985	2
7986	1
7987	1
7988	0
7989	1
7990	1
7991	0
7992	0
7993	0
7994	0
7995	0
7996	0
7997	0
7998	0
7999	0
8000	0
8001	0
8002	0
8003	0
8004	0
8005	0
8006	0
8007	2
8008	0
8009	0
8010	1
8011	1
8012	0
8013	0
8014	0
8015	0
8016	0
8017	0
8018	0
8019	0
8020	0
8021	0
8022	0
8023	0
8024	0
8025	0
8026	0
8027	0
8028	1
8029	0
8030	0
8031	0
8032	0
8033	1
8034	0
8035	1
8036	2
8037	0
8038	0
8039	0
8040	0
8041	0
8042	1
8043	0
8044	0
8045	0
8046	0
8047	1
8048	0
8049	0
8050	0
8051	1
8052	0
8053	0
8054	0
8055	0
8056	1
8057	0
8058	0
8059	0
8060	2
8061	0
8062	0
8063	1
8064	0
8065	0
8066	0
8067	0
8068	0
8069	0
8070	0
8071	0
8072	0
8073	0
8074	0
8075	0
8076	0
8077	0
8078	0
8079	0
8080	0
8081	0
8082	0
8083	0
8084	0
8085	0
8086	0
8087	0
8088	0
8089	0
8090	0
8091	0
8092	0
8093	0
8094	0
8095	0
8096	0
8097	0
8098	0
8099	0
8100	0
8101	0
8102	0
8103	0
8104	0
8105	0
8106	0
8107	0
8108	0
8109	0
8110	0
8111	0
8112	0
8113	0
8114	0
8115	0
8116	0
8117	0
8118	0
8119	0
8120	0
8121	0
8122	0
8123	0
8124	0
8125	0
8126	0
8127	0
8128	0
8129	0
8130	0
8131	0
8132	0
8133	0
8134	0
8135	0
8136	0
8137	0
8138	0
8139	0
8140	0
8141	0
8142	0
8143	0
8144	0
8145	0
8146	0
8147	0
8148	0
8149	0
8150	0
8151	0
8152	0
8153	0
8154	0
8155	0
8156	0
8157	0
8158	0
8159	0
8160	0
8161	0
8162	0
8163	0
8164	0
8165	0
8166	0
8167	0
8168	0
8169	0
8170	0
8171	0
8172	0
8173	0
8174	0
8175	0
8176	0
8177	0
8178	0
8179	0
8180	0
8181	0
8182	0
8183	0
8184	0
8185	0
8186	0
8187	0
8188	0
8189	0
8190	0
8191	0
