0	0
1	0
2	0
3	0
4	0
5	0
6	0
7	0
8	0
9	0
10	0
11	0
12	0
13	0
14	0
15	0
16	0
17	0
18	0
19	0
20	0
21	0
22	0
23	0
24	0
25	0
26	0
27	0
28	0
29	0
30	0
31	0
32	0
33	0
34	0
35	0
36	0
37	0
38	0
39	0
40	0
41	0
42	0
43	0
44	0
45	0
46	0
47	0
48	0
49	0
50	0
51	0
52	0
53	0
54	0
55	0
56	0
57	0
58	0
59	0
60	0
61	0
62	0
63	0
64	0
65	0
66	0
67	0
68	0
69	0
70	0
71	0
72	0
73	0
74	0
75	0
76	0
77	0
78	0
79	0
80	0
81	0
82	0
83	0
84	0
85	0
86	0
87	0
88	0
89	0
90	0
91	0
92	0
93	0
94	0
95	0
96	0
97	0
98	0
99	0
100	0
101	0
102	0
103	0
104	0
105	0
106	0
107	0
108	0
109	0
110	0
111	0
112	0
113	0
114	0
115	0
116	0
117	0
118	10
119	48
120	99
121	88
122	92
123	108
124	87
125	107
126	134
127	95
128	96
129	86
130	99
131	91
132	108
133	101
134	101
135	96
136	95
137	85
138	90
139	77
140	98
141	90
142	78
143	82
144	74
145	86
146	104
147	83
148	94
149	86
150	83
151	79
152	82
153	74
154	83
155	88
156	78
157	91
158	73
159	88
160	66
161	76
162	72
163	76
164	79
165	59
166	69
167	78
168	76
169	72
170	93
171	86
172	89
173	67
174	76
175	88
176	70
177	68
178	77
179	84
180	64
181	57
182	82
183	70
184	82
185	61
186	72
187	70
188	80
189	81
190	78
191	78
192	71
193	67
194	77
195	94
196	72
197	68
198	79
199	70
200	80
201	58
202	75
203	76
204	82
205	78
206	90
207	92
208	67
209	81
210	66
211	82
212	74
213	82
214	76
215	75
216	94
217	87
218	80
219	77
220	89
221	80
222	93
223	79
224	93
225	75
226	102
227	77
228	87
229	78
230	88
231	87
232	94
233	90
234	102
235	90
236	82
237	78
238	102
239	86
240	89
241	92
242	85
243	109
244	97
245	90
246	88
247	85
248	93
249	98
250	96
251	100
252	109
253	101
254	95
255	84
256	115
257	101
258	72
259	109
260	99
261	100
262	101
263	119
264	99
265	93
266	114
267	114
268	108
269	108
270	100
271	96
272	127
273	109
274	120
275	100
276	107
277	108
278	113
279	91
280	110
281	83
282	118
283	128
284	112
285	110
286	94
287	105
288	112
289	100
290	86
291	91
292	90
293	115
294	99
295	95
296	103
297	101
298	122
299	107
300	115
301	106
302	124
303	104
304	101
305	99
306	121
307	148
308	138
309	109
310	116
311	113
312	112
313	113
314	112
315	107
316	98
317	113
318	133
319	113
320	92
321	87
322	110
323	92
324	90
325	102
326	96
327	105
328	105
329	98
330	94
331	117
332	105
333	124
334	97
335	97
336	109
337	100
338	104
339	90
340	113
341	112
342	107
343	102
344	112
345	109
346	98
347	94
348	101
349	106
350	98
351	113
352	93
353	118
354	96
355	109
356	103
357	126
358	93
359	111
360	98
361	93
362	102
363	102
364	89
365	99
366	97
367	99
368	104
369	89
370	88
371	94
372	83
373	99
374	103
375	92
376	86
377	86
378	93
379	96
380	97
381	103
382	84
383	101
384	85
385	83
386	95
387	95
388	75
389	101
390	108
391	95
392	89
393	111
394	79
395	106
396	98
397	101
398	109
399	104
400	76
401	78
402	115
403	101
404	101
405	89
406	101
407	97
408	102
409	93
410	125
411	95
412	103
413	119
414	107
415	98
416	94
417	89
418	85
419	102
420	87
421	80
422	96
423	95
424	80
425	75
426	90
427	111
428	95
429	102
430	89
431	93
432	89
433	92
434	76
435	83
436	81
437	88
438	86
439	83
440	102
441	109
442	92
443	107
444	79
445	84
446	84
447	88
448	82
449	91
450	90
451	94
452	81
453	68
454	100
455	98
456	87
457	85
458	80
459	80
460	73
461	73
462	88
463	68
464	74
465	76
466	85
467	78
468	80
469	89
470	81
471	74
472	80
473	100
474	77
475	93
476	88
477	69
478	66
479	57
480	76
481	78
482	98
483	78
484	70
485	85
486	86
487	67
488	89
489	69
490	74
491	77
492	73
493	85
494	73
495	79
496	73
497	89
498	66
499	75
500	73
501	60
502	69
503	76
504	85
505	70
506	75
507	71
508	76
509	84
510	78
511	65
512	72
513	68
514	55
515	73
516	82
517	96
518	69
519	73
520	76
521	85
522	66
523	90
524	60
525	83
526	69
527	67
528	81
529	68
530	74
531	59
532	67
533	60
534	71
535	80
536	68
537	85
538	73
539	70
540	66
541	80
542	75
543	53
544	62
545	70
546	68
547	68
548	73
549	80
550	79
551	84
552	79
553	57
554	77
555	64
556	62
557	65
558	72
559	51
560	65
561	59
562	73
563	60
564	75
565	56
566	55
567	80
568	72
569	71
570	74
571	62
572	60
573	72
574	79
575	60
576	71
577	61
578	67
579	66
580	80
581	62
582	73
583	75
584	59
585	74
586	62
587	68
588	55
589	69
590	58
591	60
592	64
593	57
594	66
595	54
596	59
597	73
598	53
599	63
600	80
601	60
602	81
603	70
604	69
605	59
606	57
607	67
608	57
609	68
610	74
611	64
612	68
613	68
614	61
615	67
616	56
617	56
618	60
619	54
620	76
621	70
622	58
623	60
624	63
625	82
626	51
627	68
628	68
629	70
630	61
631	77
632	81
633	64
634	63
635	65
636	52
637	77
638	64
639	57
640	53
641	89
642	75
643	75
644	69
645	83
646	74
647	85
648	72
649	72
650	72
651	66
652	62
653	62
654	74
655	60
656	76
657	56
658	64
659	68
660	52
661	69
662	74
663	70
664	63
665	74
666	68
667	66
668	73
669	59
670	46
671	48
672	63
673	71
674	61
675	71
676	57
677	60
678	75
679	64
680	49
681	56
682	69
683	72
684	76
685	77
686	60
687	78
688	69
689	61
690	70
691	58
692	60
693	71
694	58
695	70
696	62
697	63
698	66
699	52
700	63
701	59
702	56
703	67
704	64
705	63
706	52
707	56
708	54
709	60
710	53
711	50
712	55
713	44
714	61
715	60
716	62
717	66
718	62
719	53
720	48
721	67
722	66
723	72
724	55
725	50
726	55
727	51
728	56
729	61
730	53
731	52
732	55
733	51
734	58
735	46
736	55
737	43
738	48
739	48
740	66
741	65
742	47
743	62
744	52
745	51
746	46
747	44
748	62
749	56
750	53
751	56
752	49
753	53
754	54
755	50
756	57
757	60
758	54
759	47
760	48
761	50
762	45
763	56
764	46
765	65
766	51
767	58
768	50
769	45
770	45
771	50
772	51
773	50
774	45
775	55
776	44
777	39
778	47
779	46
780	51
781	33
782	47
783	61
784	36
785	50
786	44
787	41
788	42
789	50
790	40
791	46
792	42
793	38
794	44
795	40
796	41
797	49
798	49
799	48
800	54
801	37
802	37
803	47
804	49
805	36
806	49
807	45
808	47
809	40
810	40
811	41
812	36
813	48
814	44
815	52
816	38
817	47
818	51
819	45
820	56
821	37
822	59
823	39
824	33
825	55
826	40
827	54
828	40
829	41
830	47
831	48
832	52
833	45
834	44
835	40
836	40
837	44
838	38
839	37
840	51
841	49
842	29
843	49
844	36
845	46
846	49
847	42
848	39
849	40
850	29
851	36
852	58
853	36
854	46
855	52
856	36
857	48
858	35
859	49
860	38
861	53
862	48
863	39
864	37
865	41
866	40
867	35
868	50
869	35
870	31
871	38
872	45
873	37
874	42
875	47
876	40
877	43
878	25
879	38
880	32
881	43
882	40
883	45
884	34
885	40
886	36
887	34
888	32
889	27
890	27
891	35
892	41
893	41
894	39
895	46
896	34
897	37
898	31
899	26
900	39
901	50
902	37
903	26
904	42
905	44
906	38
907	34
908	37
909	31
910	25
911	27
912	34
913	32
914	33
915	36
916	46
917	43
918	38
919	36
920	34
921	38
922	34
923	31
924	37
925	28
926	36
927	42
928	40
929	28
930	43
931	55
932	35
933	35
934	44
935	35
936	43
937	37
938	37
939	38
940	41
941	36
942	39
943	28
944	42
945	26
946	34
947	29
948	33
949	34
950	39
951	45
952	33
953	51
954	31
955	37
956	28
957	36
958	34
959	26
960	38
961	27
962	29
963	34
964	45
965	38
966	26
967	26
968	38
969	37
970	33
971	39
972	36
973	49
974	39
975	39
976	31
977	43
978	35
979	47
980	38
981	40
982	38
983	40
984	30
985	28
986	35
987	35
988	32
989	30
990	34
991	32
992	36
993	25
994	30
995	44
996	29
997	46
998	31
999	29
1000	25
1001	32
1002	43
1003	36
1004	34
1005	35
1006	29
1007	41
1008	20
1009	32
1010	38
1011	38
1012	33
1013	38
1014	22
1015	29
1016	36
1017	25
1018	33
1019	35
1020	25
1021	19
1022	42
1023	33
1024	35
1025	32
1026	24
1027	29
1028	33
1029	29
1030	46
1031	33
1032	38
1033	27
1034	41
1035	27
1036	30
1037	26
1038	24
1039	29
1040	31
1041	22
1042	34
1043	28
1044	33
1045	39
1046	39
1047	31
1048	34
1049	36
1050	31
1051	37
1052	28
1053	34
1054	38
1055	42
1056	29
1057	21
1058	29
1059	22
1060	25
1061	42
1062	35
1063	18
1064	23
1065	21
1066	30
1067	30
1068	22
1069	27
1070	28
1071	33
1072	33
1073	23
1074	40
1075	33
1076	29
1077	26
1078	31
1079	35
1080	31
1081	33
1082	33
1083	29
1084	42
1085	23
1086	31
1087	27
1088	25
1089	25
1090	31
1091	31
1092	27
1093	33
1094	23
1095	29
1096	30
1097	20
1098	32
1099	31
1100	31
1101	30
1102	29
1103	29
1104	34
1105	32
1106	28
1107	23
1108	34
1109	34
1110	24
1111	29
1112	29
1113	30
1114	26
1115	32
1116	27
1117	27
1118	29
1119	41
1120	27
1121	42
1122	30
1123	26
1124	27
1125	30
1126	21
1127	25
1128	44
1129	29
1130	25
1131	26
1132	30
1133	30
1134	27
1135	30
1136	29
1137	38
1138	32
1139	21
1140	24
1141	31
1142	33
1143	23
1144	36
1145	40
1146	25
1147	31
1148	28
1149	26
1150	26
1151	32
1152	31
1153	16
1154	30
1155	29
1156	25
1157	29
1158	18
1159	34
1160	34
1161	36
1162	42
1163	30
1164	28
1165	30
1166	22
1167	28
1168	34
1169	18
1170	27
1171	22
1172	23
1173	38
1174	31
1175	25
1176	21
1177	20
1178	37
1179	26
1180	27
1181	23
1182	25
1183	35
1184	36
1185	36
1186	38
1187	28
1188	25
1189	31
1190	28
1191	34
1192	26
1193	27
1194	34
1195	21
1196	30
1197	30
1198	24
1199	25
1200	30
1201	32
1202	35
1203	49
1204	43
1205	32
1206	41
1207	40
1208	23
1209	24
1210	25
1211	28
1212	35
1213	28
1214	33
1215	22
1216	31
1217	31
1218	24
1219	20
1220	35
1221	18
1222	22
1223	21
1224	31
1225	32
1226	30
1227	23
1228	25
1229	27
1230	27
1231	23
1232	21
1233	35
1234	21
1235	27
1236	31
1237	18
1238	25
1239	27
1240	29
1241	27
1242	21
1243	23
1244	31
1245	15
1246	24
1247	19
1248	23
1249	26
1250	25
1251	30
1252	28
1253	31
1254	30
1255	27
1256	31
1257	21
1258	32
1259	24
1260	22
1261	24
1262	22
1263	23
1264	21
1265	22
1266	34
1267	13
1268	19
1269	20
1270	29
1271	31
1272	24
1273	21
1274	29
1275	26
1276	39
1277	29
1278	23
1279	26
1280	25
1281	25
1282	18
1283	32
1284	30
1285	30
1286	22
1287	28
1288	23
1289	28
1290	14
1291	24
1292	24
1293	18
1294	27
1295	21
1296	20
1297	27
1298	34
1299	22
1300	15
1301	24
1302	27
1303	22
1304	19
1305	20
1306	25
1307	25
1308	28
1309	29
1310	19
1311	19
1312	30
1313	28
1314	31
1315	30
1316	22
1317	24
1318	28
1319	21
1320	28
1321	27
1322	35
1323	14
1324	18
1325	25
1326	26
1327	19
1328	26
1329	27
1330	24
1331	22
1332	27
1333	29
1334	22
1335	37
1336	20
1337	24
1338	18
1339	22
1340	26
1341	26
1342	27
1343	18
1344	23
1345	17
1346	24
1347	28
1348	26
1349	26
1350	17
1351	24
1352	23
1353	18
1354	24
1355	30
1356	25
1357	16
1358	22
1359	28
1360	22
1361	17
1362	28
1363	31
1364	21
1365	22
1366	29
1367	27
1368	20
1369	22
1370	28
1371	21
1372	28
1373	26
1374	27
1375	24
1376	18
1377	21
1378	28
1379	21
1380	24
1381	21
1382	28
1383	27
1384	32
1385	33
1386	25
1387	45
1388	45
1389	64
1390	61
1391	68
1392	62
1393	46
1394	43
1395	19
1396	34
1397	25
1398	25
1399	21
1400	18
1401	28
1402	28
1403	27
1404	22
1405	22
1406	29
1407	28
1408	13
1409	20
1410	17
1411	32
1412	19
1413	28
1414	25
1415	20
1416	22
1417	27
1418	20
1419	22
1420	19
1421	33
1422	22
1423	19
1424	27
1425	19
1426	22
1427	21
1428	27
1429	23
1430	25
1431	22
1432	26
1433	20
1434	34
1435	28
1436	31
1437	26
1438	29
1439	21
1440	14
1441	12
1442	24
1443	24
1444	31
1445	30
1446	24
1447	27
1448	23
1449	26
1450	22
1451	31
1452	23
1453	22
1454	23
1455	18
1456	28
1457	21
1458	28
1459	24
1460	21
1461	15
1462	18
1463	24
1464	21
1465	16
1466	22
1467	22
1468	18
1469	13
1470	29
1471	21
1472	25
1473	19
1474	31
1475	25
1476	27
1477	32
1478	23
1479	26
1480	25
1481	28
1482	19
1483	21
1484	24
1485	21
1486	19
1487	21
1488	25
1489	28
1490	25
1491	23
1492	18
1493	23
1494	19
1495	23
1496	26
1497	15
1498	21
1499	35
1500	24
1501	24
1502	27
1503	34
1504	26
1505	25
1506	36
1507	24
1508	30
1509	14
1510	33
1511	29
1512	21
1513	23
1514	22
1515	28
1516	16
1517	18
1518	17
1519	18
1520	22
1521	28
1522	26
1523	30
1524	26
1525	18
1526	29
1527	21
1528	28
1529	22
1530	23
1531	33
1532	16
1533	22
1534	24
1535	26
1536	23
1537	19
1538	25
1539	17
1540	23
1541	21
1542	22
1543	20
1544	31
1545	18
1546	22
1547	22
1548	28
1549	22
1550	18
1551	20
1552	20
1553	16
1554	18
1555	22
1556	22
1557	19
1558	26
1559	21
1560	19
1561	30
1562	18
1563	31
1564	20
1565	26
1566	17
1567	30
1568	24
1569	18
1570	15
1571	17
1572	28
1573	22
1574	20
1575	12
1576	31
1577	26
1578	27
1579	26
1580	23
1581	26
1582	18
1583	21
1584	15
1585	10
1586	25
1587	13
1588	25
1589	23
1590	22
1591	20
1592	17
1593	20
1594	16
1595	17
1596	23
1597	29
1598	18
1599	13
1600	29
1601	18
1602	19
1603	18
1604	29
1605	17
1606	18
1607	28
1608	22
1609	20
1610	24
1611	25
1612	24
1613	19
1614	17
1615	20
1616	20
1617	19
1618	23
1619	19
1620	22
1621	28
1622	17
1623	28
1624	23
1625	31
1626	17
1627	24
1628	22
1629	27
1630	28
1631	29
1632	31
1633	26
1634	20
1635	27
1636	19
1637	20
1638	36
1639	21
1640	27
1641	24
1642	28
1643	25
1644	45
1645	36
1646	33
1647	34
1648	20
1649	26
1650	25
1651	20
1652	19
1653	20
1654	21
1655	20
1656	22
1657	30
1658	25
1659	22
1660	32
1661	24
1662	21
1663	28
1664	15
1665	17
1666	28
1667	22
1668	18
1669	28
1670	25
1671	21
1672	24
1673	19
1674	27
1675	23
1676	20
1677	22
1678	27
1679	31
1680	23
1681	13
1682	26
1683	18
1684	26
1685	27
1686	23
1687	31
1688	16
1689	11
1690	24
1691	26
1692	20
1693	27
1694	22
1695	26
1696	26
1697	24
1698	31
1699	23
1700	20
1701	26
1702	23
1703	22
1704	11
1705	18
1706	16
1707	23
1708	19
1709	24
1710	30
1711	30
1712	20
1713	25
1714	18
1715	18
1716	24
1717	25
1718	20
1719	22
1720	23
1721	25
1722	32
1723	27
1724	34
1725	16
1726	20
1727	20
1728	30
1729	17
1730	23
1731	14
1732	21
1733	20
1734	28
1735	31
1736	27
1737	15
1738	21
1739	21
1740	27
1741	16
1742	23
1743	21
1744	28
1745	27
1746	23
1747	20
1748	18
1749	28
1750	23
1751	14
1752	21
1753	22
1754	19
1755	24
1756	16
1757	19
1758	28
1759	17
1760	19
1761	20
1762	24
1763	20
1764	21
1765	24
1766	24
1767	22
1768	27
1769	19
1770	20
1771	29
1772	19
1773	28
1774	18
1775	24
1776	23
1777	20
1778	21
1779	20
1780	20
1781	31
1782	33
1783	30
1784	25
1785	18
1786	21
1787	20
1788	20
1789	27
1790	25
1791	25
1792	26
1793	23
1794	24
1795	25
1796	16
1797	26
1798	25
1799	19
1800	32
1801	25
1802	22
1803	25
1804	15
1805	24
1806	20
1807	22
1808	35
1809	23
1810	26
1811	22
1812	24
1813	18
1814	22
1815	16
1816	21
1817	17
1818	27
1819	18
1820	21
1821	16
1822	28
1823	23
1824	27
1825	15
1826	20
1827	23
1828	17
1829	21
1830	13
1831	26
1832	13
1833	26
1834	23
1835	31
1836	21
1837	24
1838	15
1839	22
1840	27
1841	23
1842	15
1843	16
1844	25
1845	28
1846	14
1847	21
1848	19
1849	27
1850	19
1851	27
1852	19
1853	20
1854	13
1855	22
1856	26
1857	28
1858	19
1859	22
1860	27
1861	23
1862	25
1863	29
1864	22
1865	22
1866	23
1867	18
1868	22
1869	24
1870	27
1871	25
1872	19
1873	21
1874	20
1875	27
1876	16
1877	24
1878	19
1879	23
1880	22
1881	24
1882	15
1883	19
1884	11
1885	18
1886	22
1887	24
1888	23
1889	12
1890	18
1891	21
1892	26
1893	28
1894	14
1895	33
1896	31
1897	25
1898	33
1899	18
1900	18
1901	23
1902	27
1903	16
1904	25
1905	36
1906	18
1907	20
1908	20
1909	23
1910	16
1911	22
1912	20
1913	20
1914	20
1915	9
1916	18
1917	22
1918	26
1919	21
1920	19
1921	29
1922	19
1923	23
1924	17
1925	23
1926	22
1927	13
1928	25
1929	24
1930	17
1931	23
1932	16
1933	23
1934	28
1935	26
1936	20
1937	24
1938	23
1939	19
1940	16
1941	29
1942	20
1943	31
1944	27
1945	23
1946	27
1947	20
1948	18
1949	17
1950	20
1951	20
1952	16
1953	19
1954	23
1955	20
1956	24
1957	23
1958	24
1959	21
1960	15
1961	15
1962	29
1963	19
1964	17
1965	19
1966	21
1967	31
1968	24
1969	18
1970	27
1971	26
1972	22
1973	24
1974	31
1975	13
1976	15
1977	21
1978	20
1979	15
1980	23
1981	17
1982	26
1983	21
1984	27
1985	21
1986	16
1987	25
1988	20
1989	23
1990	23
1991	28
1992	18
1993	22
1994	24
1995	23
1996	18
1997	13
1998	24
1999	16
2000	26
2001	17
2002	22
2003	20
2004	18
2005	16
2006	23
2007	20
2008	22
2009	21
2010	27
2011	17
2012	21
2013	23
2014	14
2015	22
2016	14
2017	16
2018	22
2019	19
2020	24
2021	19
2022	24
2023	13
2024	20
2025	24
2026	20
2027	23
2028	17
2029	23
2030	28
2031	27
2032	28
2033	22
2034	23
2035	22
2036	28
2037	18
2038	18
2039	18
2040	26
2041	19
2042	20
2043	17
2044	19
2045	17
2046	15
2047	19
2048	24
2049	21
2050	16
2051	13
2052	22
2053	20
2054	22
2055	22
2056	15
2057	20
2058	28
2059	18
2060	19
2061	25
2062	19
2063	25
2064	26
2065	20
2066	18
2067	22
2068	20
2069	21
2070	20
2071	21
2072	24
2073	20
2074	19
2075	16
2076	26
2077	24
2078	23
2079	19
2080	20
2081	21
2082	26
2083	18
2084	18
2085	20
2086	22
2087	19
2088	24
2089	15
2090	28
2091	15
2092	30
2093	18
2094	20
2095	32
2096	24
2097	21
2098	19
2099	23
2100	23
2101	12
2102	20
2103	35
2104	28
2105	25
2106	25
2107	21
2108	24
2109	23
2110	20
2111	20
2112	20
2113	20
2114	14
2115	24
2116	22
2117	22
2118	26
2119	18
2120	22
2121	16
2122	23
2123	19
2124	11
2125	13
2126	25
2127	31
2128	20
2129	23
2130	21
2131	17
2132	22
2133	21
2134	17
2135	19
2136	31
2137	20
2138	24
2139	15
2140	19
2141	26
2142	14
2143	27
2144	17
2145	29
2146	23
2147	19
2148	25
2149	29
2150	25
2151	33
2152	21
2153	20
2154	24
2155	18
2156	17
2157	24
2158	15
2159	25
2160	16
2161	17
2162	26
2163	15
2164	20
2165	24
2166	17
2167	24
2168	16
2169	34
2170	25
2171	14
2172	28
2173	26
2174	18
2175	19
2176	21
2177	9
2178	17
2179	16
2180	20
2181	15
2182	24
2183	25
2184	14
2185	22
2186	13
2187	24
2188	14
2189	24
2190	14
2191	25
2192	22
2193	24
2194	24
2195	22
2196	15
2197	18
2198	18
2199	26
2200	28
2201	14
2202	16
2203	19
2204	24
2205	26
2206	30
2207	14
2208	35
2209	17
2210	15
2211	19
2212	20
2213	23
2214	35
2215	15
2216	27
2217	21
2218	30
2219	26
2220	20
2221	30
2222	22
2223	15
2224	18
2225	18
2226	18
2227	28
2228	22
2229	19
2230	19
2231	20
2232	21
2233	21
2234	20
2235	24
2236	20
2237	23
2238	26
2239	25
2240	17
2241	23
2242	18
2243	24
2244	20
2245	18
2246	27
2247	20
2248	22
2249	14
2250	21
2251	23
2252	15
2253	20
2254	21
2255	12
2256	18
2257	23
2258	14
2259	17
2260	21
2261	21
2262	20
2263	24
2264	31
2265	21
2266	22
2267	20
2268	25
2269	26
2270	24
2271	18
2272	25
2273	31
2274	26
2275	28
2276	31
2277	18
2278	29
2279	17
2280	19
2281	16
2282	27
2283	22
2284	25
2285	19
2286	26
2287	19
2288	24
2289	24
2290	20
2291	16
2292	23
2293	23
2294	13
2295	12
2296	26
2297	19
2298	23
2299	25
2300	26
2301	18
2302	18
2303	27
2304	18
2305	17
2306	22
2307	26
2308	21
2309	20
2310	25
2311	20
2312	18
2313	16
2314	21
2315	27
2316	15
2317	16
2318	23
2319	32
2320	33
2321	18
2322	20
2323	21
2324	29
2325	21
2326	22
2327	19
2328	23
2329	17
2330	6
2331	31
2332	18
2333	22
2334	28
2335	22
2336	25
2337	24
2338	15
2339	18
2340	18
2341	21
2342	27
2343	17
2344	16
2345	23
2346	22
2347	34
2348	23
2349	18
2350	17
2351	23
2352	19
2353	21
2354	26
2355	31
2356	15
2357	18
2358	17
2359	24
2360	13
2361	19
2362	24
2363	25
2364	29
2365	20
2366	22
2367	24
2368	26
2369	20
2370	18
2371	21
2372	27
2373	16
2374	24
2375	23
2376	25
2377	25
2378	17
2379	18
2380	27
2381	25
2382	23
2383	25
2384	32
2385	16
2386	16
2387	21
2388	22
2389	20
2390	21
2391	27
2392	18
2393	22
2394	20
2395	12
2396	13
2397	32
2398	26
2399	21
2400	39
2401	19
2402	30
2403	24
2404	17
2405	22
2406	19
2407	23
2408	27
2409	23
2410	19
2411	26
2412	21
2413	17
2414	24
2415	26
2416	19
2417	28
2418	31
2419	15
2420	14
2421	18
2422	29
2423	12
2424	23
2425	33
2426	26
2427	31
2428	34
2429	31
2430	22
2431	15
2432	29
2433	28
2434	18
2435	25
2436	22
2437	22
2438	12
2439	18
2440	33
2441	25
2442	30
2443	22
2444	21
2445	26
2446	22
2447	24
2448	23
2449	24
2450	28
2451	32
2452	19
2453	29
2454	25
2455	21
2456	24
2457	21
2458	20
2459	27
2460	20
2461	23
2462	15
2463	17
2464	29
2465	24
2466	25
2467	30
2468	26
2469	18
2470	13
2471	18
2472	27
2473	22
2474	11
2475	14
2476	29
2477	26
2478	21
2479	16
2480	16
2481	20
2482	31
2483	26
2484	33
2485	21
2486	28
2487	21
2488	32
2489	31
2490	27
2491	18
2492	25
2493	24
2494	18
2495	25
2496	25
2497	27
2498	22
2499	21
2500	16
2501	26
2502	19
2503	20
2504	27
2505	15
2506	30
2507	23
2508	18
2509	22
2510	19
2511	23
2512	23
2513	21
2514	27
2515	21
2516	23
2517	21
2518	21
2519	25
2520	29
2521	21
2522	25
2523	31
2524	30
2525	30
2526	37
2527	42
2528	31
2529	25
2530	39
2531	38
2532	38
2533	32
2534	23
2535	23
2536	29
2537	26
2538	19
2539	27
2540	29
2541	31
2542	23
2543	29
2544	26
2545	31
2546	28
2547	17
2548	22
2549	32
2550	20
2551	23
2552	20
2553	30
2554	22
2555	29
2556	22
2557	21
2558	16
2559	31
2560	26
2561	26
2562	23
2563	26
2564	30
2565	15
2566	30
2567	32
2568	25
2569	31
2570	15
2571	23
2572	27
2573	27
2574	34
2575	27
2576	23
2577	28
2578	28
2579	29
2580	23
2581	21
2582	13
2583	21
2584	32
2585	24
2586	22
2587	22
2588	25
2589	25
2590	26
2591	28
2592	27
2593	22
2594	28
2595	22
2596	24
2597	21
2598	21
2599	19
2600	27
2601	17
2602	24
2603	34
2604	23
2605	20
2606	22
2607	26
2608	33
2609	27
2610	23
2611	19
2612	20
2613	29
2614	21
2615	23
2616	21
2617	22
2618	29
2619	23
2620	21
2621	24
2622	24
2623	22
2624	17
2625	26
2626	20
2627	25
2628	20
2629	25
2630	20
2631	22
2632	15
2633	22
2634	33
2635	27
2636	22
2637	22
2638	31
2639	32
2640	19
2641	29
2642	27
2643	29
2644	29
2645	24
2646	25
2647	18
2648	26
2649	19
2650	29
2651	20
2652	28
2653	23
2654	22
2655	23
2656	28
2657	21
2658	24
2659	16
2660	28
2661	30
2662	23
2663	21
2664	28
2665	17
2666	19
2667	26
2668	31
2669	23
2670	25
2671	25
2672	30
2673	21
2674	33
2675	18
2676	20
2677	23
2678	25
2679	17
2680	18
2681	19
2682	28
2683	26
2684	24
2685	29
2686	21
2687	23
2688	22
2689	34
2690	14
2691	28
2692	24
2693	25
2694	25
2695	22
2696	27
2697	39
2698	19
2699	19
2700	24
2701	33
2702	27
2703	21
2704	23
2705	28
2706	34
2707	35
2708	27
2709	18
2710	25
2711	20
2712	24
2713	27
2714	18
2715	26
2716	22
2717	30
2718	31
2719	27
2720	25
2721	24
2722	26
2723	24
2724	20
2725	25
2726	18
2727	25
2728	22
2729	30
2730	20
2731	22
2732	30
2733	27
2734	25
2735	29
2736	22
2737	22
2738	24
2739	22
2740	22
2741	26
2742	23
2743	28
2744	24
2745	24
2746	25
2747	28
2748	27
2749	33
2750	35
2751	28
2752	30
2753	22
2754	17
2755	22
2756	27
2757	26
2758	24
2759	34
2760	15
2761	28
2762	22
2763	32
2764	25
2765	30
2766	21
2767	28
2768	29
2769	31
2770	24
2771	16
2772	21
2773	31
2774	35
2775	26
2776	27
2777	29
2778	31
2779	33
2780	24
2781	21
2782	23
2783	35
2784	23
2785	29
2786	29
2787	33
2788	28
2789	24
2790	32
2791	22
2792	22
2793	20
2794	32
2795	21
2796	29
2797	28
2798	22
2799	33
2800	26
2801	42
2802	38
2803	31
2804	23
2805	27
2806	30
2807	25
2808	29
2809	30
2810	26
2811	28
2812	23
2813	31
2814	32
2815	28
2816	39
2817	22
2818	19
2819	32
2820	32
2821	26
2822	35
2823	32
2824	33
2825	35
2826	20
2827	35
2828	30
2829	29
2830	28
2831	26
2832	26
2833	30
2834	39
2835	20
2836	24
2837	26
2838	23
2839	21
2840	23
2841	30
2842	31
2843	28
2844	23
2845	30
2846	27
2847	27
2848	24
2849	25
2850	27
2851	29
2852	29
2853	30
2854	24
2855	26
2856	24
2857	31
2858	18
2859	23
2860	20
2861	28
2862	26
2863	28
2864	26
2865	26
2866	34
2867	35
2868	30
2869	24
2870	34
2871	35
2872	42
2873	32
2874	31
2875	32
2876	34
2877	36
2878	33
2879	33
2880	26
2881	30
2882	27
2883	28
2884	25
2885	32
2886	38
2887	30
2888	34
2889	29
2890	38
2891	31
2892	24
2893	27
2894	24
2895	19
2896	31
2897	34
2898	24
2899	26
2900	31
2901	31
2902	26
2903	17
2904	30
2905	31
2906	26
2907	32
2908	31
2909	27
2910	20
2911	34
2912	31
2913	43
2914	35
2915	21
2916	23
2917	21
2918	26
2919	36
2920	36
2921	23
2922	34
2923	29
2924	22
2925	30
2926	36
2927	31
2928	29
2929	34
2930	24
2931	29
2932	30
2933	17
2934	31
2935	35
2936	28
2937	32
2938	28
2939	22
2940	38
2941	29
2942	40
2943	40
2944	31
2945	36
2946	33
2947	36
2948	17
2949	32
2950	36
2951	22
2952	29
2953	27
2954	27
2955	41
2956	21
2957	32
2958	32
2959	30
2960	19
2961	25
2962	39
2963	28
2964	33
2965	34
2966	39
2967	34
2968	37
2969	41
2970	22
2971	36
2972	24
2973	26
2974	33
2975	27
2976	30
2977	19
2978	36
2979	35
2980	35
2981	26
2982	27
2983	39
2984	23
2985	38
2986	32
2987	25
2988	45
2989	29
2990	40
2991	23
2992	28
2993	29
2994	30
2995	23
2996	31
2997	42
2998	33
2999	42
3000	34
3001	31
3002	28
3003	25
3004	35
3005	29
3006	31
3007	36
3008	37
3009	34
3010	31
3011	33
3012	36
3013	34
3014	26
3015	28
3016	48
3017	35
3018	32
3019	37
3020	27
3021	35
3022	39
3023	32
3024	34
3025	34
3026	27
3027	37
3028	34
3029	36
3030	28
3031	35
3032	31
3033	39
3034	33
3035	33
3036	36
3037	29
3038	24
3039	37
3040	25
3041	38
3042	31
3043	24
3044	46
3045	31
3046	31
3047	34
3048	36
3049	37
3050	30
3051	32
3052	45
3053	32
3054	32
3055	36
3056	35
3057	31
3058	29
3059	33
3060	34
3061	41
3062	38
3063	43
3064	35
3065	53
3066	35
3067	34
3068	38
3069	38
3070	36
3071	39
3072	35
3073	33
3074	41
3075	36
3076	29
3077	50
3078	30
3079	31
3080	38
3081	38
3082	34
3083	34
3084	32
3085	48
3086	38
3087	43
3088	40
3089	24
3090	39
3091	39
3092	34
3093	47
3094	33
3095	40
3096	34
3097	30
3098	30
3099	36
3100	33
3101	41
3102	35
3103	36
3104	26
3105	41
3106	41
3107	25
3108	42
3109	26
3110	32
3111	43
3112	41
3113	36
3114	41
3115	36
3116	34
3117	32
3118	41
3119	34
3120	44
3121	37
3122	37
3123	26
3124	31
3125	31
3126	49
3127	30
3128	32
3129	47
3130	49
3131	47
3132	37
3133	33
3134	47
3135	49
3136	44
3137	38
3138	39
3139	44
3140	40
3141	31
3142	37
3143	37
3144	50
3145	36
3146	46
3147	50
3148	40
3149	49
3150	45
3151	44
3152	40
3153	56
3154	40
3155	38
3156	37
3157	37
3158	40
3159	44
3160	38
3161	56
3162	38
3163	33
3164	47
3165	38
3166	43
3167	24
3168	29
3169	37
3170	42
3171	36
3172	39
3173	42
3174	48
3175	50
3176	37
3177	32
3178	33
3179	26
3180	46
3181	47
3182	38
3183	43
3184	37
3185	45
3186	55
3187	40
3188	43
3189	33
3190	35
3191	41
3192	46
3193	38
3194	48
3195	40
3196	52
3197	41
3198	42
3199	44
3200	38
3201	48
3202	46
3203	47
3204	38
3205	48
3206	48
3207	40
3208	36
3209	37
3210	32
3211	40
3212	47
3213	40
3214	43
3215	47
3216	39
3217	35
3218	31
3219	47
3220	48
3221	38
3222	50
3223	43
3224	37
3225	33
3226	42
3227	45
3228	36
3229	42
3230	41
3231	51
3232	33
3233	45
3234	42
3235	39
3236	56
3237	34
3238	36
3239	35
3240	42
3241	39
3242	42
3243	34
3244	45
3245	59
3246	45
3247	52
3248	45
3249	48
3250	47
3251	47
3252	44
3253	39
3254	52
3255	41
3256	37
3257	41
3258	36
3259	51
3260	47
3261	52
3262	41
3263	55
3264	34
3265	46
3266	37
3267	43
3268	39
3269	47
3270	51
3271	41
3272	37
3273	29
3274	44
3275	47
3276	38
3277	45
3278	41
3279	33
3280	32
3281	35
3282	46
3283	39
3284	48
3285	41
3286	44
3287	31
3288	37
3289	39
3290	28
3291	29
3292	34
3293	34
3294	30
3295	31
3296	27
3297	36
3298	32
3299	25
3300	31
3301	22
3302	42
3303	34
3304	28
3305	36
3306	21
3307	27
3308	27
3309	28
3310	20
3311	35
3312	21
3313	36
3314	22
3315	24
3316	31
3317	25
3318	22
3319	18
3320	29
3321	31
3322	17
3323	26
3324	28
3325	33
3326	26
3327	29
3328	30
3329	25
3330	30
3331	26
3332	25
3333	21
3334	33
3335	19
3336	25
3337	26
3338	23
3339	26
3340	30
3341	27
3342	30
3343	35
3344	29
3345	21
3346	17
3347	23
3348	24
3349	21
3350	29
3351	29
3352	27
3353	31
3354	23
3355	21
3356	19
3357	26
3358	14
3359	29
3360	30
3361	24
3362	39
3363	23
3364	24
3365	33
3366	17
3367	30
3368	22
3369	24
3370	25
3371	24
3372	26
3373	25
3374	23
3375	17
3376	18
3377	33
3378	24
3379	24
3380	26
3381	28
3382	24
3383	20
3384	24
3385	21
3386	25
3387	29
3388	30
3389	21
3390	22
3391	22
3392	22
3393	23
3394	20
3395	37
3396	26
3397	21
3398	26
3399	23
3400	25
3401	21
3402	16
3403	21
3404	26
3405	30
3406	22
3407	24
3408	16
3409	26
3410	22
3411	19
3412	20
3413	19
3414	19
3415	25
3416	22
3417	28
3418	15
3419	19
3420	14
3421	22
3422	30
3423	25
3424	31
3425	15
3426	18
3427	19
3428	28
3429	19
3430	28
3431	29
3432	25
3433	23
3434	17
3435	23
3436	15
3437	20
3438	18
3439	26
3440	16
3441	20
3442	14
3443	29
3444	21
3445	13
3446	21
3447	29
3448	17
3449	19
3450	18
3451	13
3452	20
3453	23
3454	15
3455	24
3456	20
3457	17
3458	13
3459	17
3460	14
3461	16
3462	20
3463	17
3464	18
3465	25
3466	21
3467	15
3468	12
3469	19
3470	14
3471	21
3472	18
3473	16
3474	11
3475	18
3476	22
3477	18
3478	12
3479	12
3480	24
3481	15
3482	16
3483	16
3484	17
3485	17
3486	19
3487	12
3488	16
3489	22
3490	12
3491	15
3492	16
3493	15
3494	15
3495	16
3496	14
3497	12
3498	13
3499	14
3500	15
3501	12
3502	14
3503	13
3504	13
3505	16
3506	10
3507	13
3508	23
3509	10
3510	16
3511	13
3512	21
3513	8
3514	12
3515	9
3516	17
3517	14
3518	12
3519	19
3520	12
3521	11
3522	11
3523	9
3524	15
3525	11
3526	9
3527	15
3528	10
3529	14
3530	10
3531	17
3532	9
3533	9
3534	9
3535	10
3536	9
3537	15
3538	6
3539	12
3540	10
3541	7
3542	6
3543	13
3544	11
3545	11
3546	14
3547	8
3548	6
3549	6
3550	13
3551	13
3552	5
3553	12
3554	7
3555	10
3556	7
3557	11
3558	8
3559	11
3560	8
3561	6
3562	5
3563	9
3564	13
3565	7
3566	11
3567	7
3568	6
3569	5
3570	10
3571	6
3572	11
3573	6
3574	9
3575	9
3576	11
3577	5
3578	7
3579	7
3580	10
3581	7
3582	5
3583	8
3584	9
3585	4
3586	13
3587	11
3588	8
3589	5
3590	6
3591	7
3592	8
3593	9
3594	6
3595	10
3596	4
3597	7
3598	9
3599	12
3600	9
3601	8
3602	9
3603	11
3604	7
3605	8
3606	11
3607	6
3608	6
3609	8
3610	6
3611	6
3612	6
3613	5
3614	8
3615	8
3616	4
3617	12
3618	2
3619	5
3620	4
3621	1
3622	3
3623	6
3624	6
3625	4
3626	9
3627	6
3628	5
3629	7
3630	6
3631	9
3632	8
3633	7
3634	5
3635	4
3636	9
3637	6
3638	5
3639	6
3640	7
3641	8
3642	8
3643	9
3644	5
3645	11
3646	6
3647	2
3648	8
3649	12
3650	5
3651	11
3652	2
3653	3
3654	4
3655	8
3656	3
3657	3
3658	5
3659	8
3660	8
3661	4
3662	6
3663	6
3664	7
3665	10
3666	3
3667	6
3668	6
3669	5
3670	4
3671	10
3672	5
3673	4
3674	5
3675	13
3676	8
3677	7
3678	12
3679	5
3680	6
3681	4
3682	3
3683	2
3684	3
3685	5
3686	6
3687	6
3688	3
3689	11
3690	6
3691	4
3692	4
3693	5
3694	6
3695	1
3696	6
3697	5
3698	6
3699	7
3700	6
3701	3
3702	2
3703	6
3704	6
3705	4
3706	4
3707	4
3708	8
3709	3
3710	6
3711	1
3712	8
3713	5
3714	2
3715	8
3716	8
3717	4
3718	6
3719	7
3720	6
3721	5
3722	3
3723	5
3724	6
3725	4
3726	8
3727	8
3728	7
3729	6
3730	5
3731	3
3732	1
3733	2
3734	3
3735	10
3736	8
3737	3
3738	4
3739	6
3740	8
3741	2
3742	4
3743	4
3744	2
3745	8
3746	3
3747	5
3748	2
3749	6
3750	4
3751	4
3752	3
3753	4
3754	4
3755	9
3756	7
3757	9
3758	7
3759	1
3760	5
3761	4
3762	8
3763	4
3764	2
3765	3
3766	3
3767	3
3768	3
3769	5
3770	5
3771	4
3772	7
3773	7
3774	6
3775	5
3776	3
3777	4
3778	3
3779	6
3780	2
3781	7
3782	6
3783	8
3784	6
3785	3
3786	4
3787	5
3788	3
3789	7
3790	4
3791	5
3792	6
3793	6
3794	2
3795	2
3796	4
3797	3
3798	6
3799	7
3800	4
3801	2
3802	7
3803	5
3804	8
3805	8
3806	5
3807	3
3808	14
3809	3
3810	5
3811	7
3812	4
3813	4
3814	4
3815	6
3816	2
3817	5
3818	7
3819	7
3820	7
3821	2
3822	2
3823	6
3824	2
3825	2
3826	5
3827	8
3828	7
3829	6
3830	7
3831	9
3832	9
3833	3
3834	7
3835	5
3836	3
3837	4
3838	7
3839	9
3840	4
3841	5
3842	9
3843	9
3844	14
3845	29
3846	66
3847	217
3848	622
3849	1216
3850	2073
3851	2653
3852	2967
3853	2555
3854	1873
3855	1104
3856	479
3857	201
3858	75
3859	17
3860	5
3861	1
3862	6
3863	0
3864	2
3865	2
3866	0
3867	0
3868	1
3869	2
3870	2
3871	0
3872	2
3873	2
3874	1
3875	2
3876	2
3877	2
3878	0
3879	1
3880	1
3881	0
3882	2
3883	2
3884	2
3885	0
3886	1
3887	0
3888	1
3889	1
3890	0
3891	0
3892	0
3893	0
3894	0
3895	1
3896	0
3897	1
3898	3
3899	0
3900	2
3901	0
3902	0
3903	0
3904	0
3905	0
3906	1
3907	0
3908	0
3909	1
3910	1
3911	0
3912	0
3913	0
3914	1
3915	2
3916	1
3917	0
3918	0
3919	0
3920	0
3921	0
3922	0
3923	0
3924	0
3925	1
3926	0
3927	1
3928	1
3929	0
3930	1
3931	1
3932	1
3933	1
3934	0
3935	0
3936	0
3937	0
3938	1
3939	1
3940	0
3941	0
3942	1
3943	0
3944	0
3945	1
3946	0
3947	0
3948	0
3949	0
3950	2
3951	1
3952	0
3953	1
3954	0
3955	0
3956	1
3957	2
3958	0
3959	1
3960	1
3961	1
3962	0
3963	0
3964	2
3965	0
3966	0
3967	0
3968	1
3969	0
3970	0
3971	0
3972	1
3973	0
3974	0
3975	0
3976	0
3977	0
3978	0
3979	0
3980	0
3981	1
3982	0
3983	1
3984	0
3985	1
3986	2
3987	0
3988	2
3989	1
3990	0
3991	3
3992	0
3993	0
3994	0
3995	0
3996	0
3997	2
3998	1
3999	0
4000	0
4001	0
4002	1
4003	1
4004	0
4005	1
4006	0
4007	4
4008	1
4009	2
4010	0
4011	0
4012	3
4013	0
4014	1
4015	0
4016	0
4017	1
4018	0
4019	2
4020	0
4021	0
4022	0
4023	0
4024	0
4025	0
4026	0
4027	0
4028	1
4029	0
4030	0
4031	0
4032	1
4033	1
4034	0
4035	0
4036	0
4037	0
4038	2
4039	0
4040	0
4041	1
4042	1
4043	0
4044	0
4045	0
4046	0
4047	0
4048	0
4049	0
4050	2
4051	1
4052	1
4053	1
4054	0
4055	0
4056	0
4057	0
4058	1
4059	1
4060	0
4061	0
4062	0
4063	0
4064	1
4065	1
4066	1
4067	0
4068	0
4069	1
4070	0
4071	4
4072	1
4073	1
4074	1
4075	1
4076	0
4077	0
4078	1
4079	1
4080	0
4081	1
4082	1
4083	0
4084	0
4085	0
4086	1
4087	1
4088	0
4089	3
4090	1
4091	0
4092	2
4093	1
4094	0
4095	1
4096	0
4097	0
4098	1
4099	0
4100	1
4101	1
4102	1
4103	0
4104	0
4105	2
4106	1
4107	0
4108	0
4109	0
4110	0
4111	0
4112	0
4113	3
4114	0
4115	2
4116	1
4117	0
4118	0
4119	0
4120	2
4121	0
4122	0
4123	1
4124	0
4125	0
4126	0
4127	1
4128	0
4129	0
4130	1
4131	1
4132	0
4133	1
4134	0
4135	0
4136	0
4137	1
4138	2
4139	0
4140	0
4141	0
4142	3
4143	0
4144	0
4145	0
4146	2
4147	0
4148	1
4149	0
4150	2
4151	0
4152	1
4153	2
4154	1
4155	0
4156	1
4157	1
4158	1
4159	0
4160	2
4161	2
4162	1
4163	3
4164	0
4165	1
4166	1
4167	0
4168	0
4169	0
4170	1
4171	0
4172	0
4173	0
4174	0
4175	0
4176	1
4177	1
4178	1
4179	1
4180	0
4181	1
4182	2
4183	3
4184	2
4185	3
4186	1
4187	2
4188	1
4189	0
4190	1
4191	2
4192	0
4193	0
4194	0
4195	0
4196	0
4197	0
4198	0
4199	0
4200	1
4201	1
4202	0
4203	0
4204	1
4205	0
4206	0
4207	0
4208	0
4209	0
4210	0
4211	0
4212	1
4213	0
4214	1
4215	2
4216	0
4217	0
4218	2
4219	1
4220	0
4221	1
4222	0
4223	0
4224	1
4225	0
4226	0
4227	0
4228	1
4229	0
4230	0
4231	0
4232	0
4233	3
4234	0
4235	0
4236	0
4237	1
4238	0
4239	0
4240	1
4241	0
4242	0
4243	0
4244	0
4245	0
4246	0
4247	0
4248	1
4249	0
4250	0
4251	0
4252	0
4253	1
4254	1
4255	0
4256	1
4257	0
4258	2
4259	0
4260	1
4261	0
4262	0
4263	1
4264	1
4265	0
4266	2
4267	0
4268	1
4269	0
4270	0
4271	0
4272	0
4273	1
4274	0
4275	1
4276	0
4277	2
4278	0
4279	2
4280	1
4281	0
4282	1
4283	1
4284	0
4285	0
4286	0
4287	0
4288	2
4289	0
4290	1
4291	0
4292	0
4293	1
4294	1
4295	2
4296	1
4297	0
4298	1
4299	0
4300	0
4301	0
4302	0
4303	0
4304	0
4305	0
4306	1
4307	0
4308	0
4309	0
4310	0
4311	1
4312	0
4313	2
4314	1
4315	0
4316	1
4317	2
4318	0
4319	0
4320	0
4321	0
4322	0
4323	1
4324	0
4325	1
4326	0
4327	0
4328	0
4329	1
4330	1
4331	0
4332	1
4333	0
4334	0
4335	1
4336	1
4337	0
4338	1
4339	1
4340	0
4341	2
4342	0
4343	0
4344	0
4345	0
4346	2
4347	0
4348	1
4349	0
4350	0
4351	0
4352	0
4353	0
4354	0
4355	2
4356	0
4357	0
4358	0
4359	0
4360	0
4361	1
4362	0
4363	0
4364	1
4365	1
4366	1
4367	1
4368	1
4369	0
4370	0
4371	0
4372	0
4373	0
4374	0
4375	1
4376	0
4377	0
4378	0
4379	0
4380	0
4381	1
4382	0
4383	0
4384	3
4385	0
4386	0
4387	2
4388	0
4389	0
4390	1
4391	0
4392	0
4393	1
4394	1
4395	0
4396	0
4397	0
4398	1
4399	0
4400	0
4401	0
4402	1
4403	1
4404	0
4405	0
4406	0
4407	2
4408	0
4409	0
4410	0
4411	1
4412	0
4413	0
4414	0
4415	0
4416	0
4417	2
4418	0
4419	0
4420	0
4421	0
4422	2
4423	1
4424	0
4425	0
4426	0
4427	0
4428	0
4429	0
4430	0
4431	0
4432	1
4433	1
4434	0
4435	2
4436	0
4437	1
4438	0
4439	0
4440	0
4441	0
4442	1
4443	1
4444	1
4445	0
4446	0
4447	0
4448	0
4449	0
4450	2
4451	0
4452	1
4453	0
4454	0
4455	0
4456	0
4457	0
4458	1
4459	0
4460	1
4461	0
4462	1
4463	2
4464	0
4465	0
4466	0
4467	0
4468	0
4469	0
4470	0
4471	0
4472	0
4473	0
4474	3
4475	1
4476	0
4477	0
4478	0
4479	0
4480	2
4481	0
4482	0
4483	0
4484	0
4485	1
4486	0
4487	0
4488	1
4489	0
4490	0
4491	0
4492	1
4493	1
4494	2
4495	1
4496	0
4497	1
4498	0
4499	0
4500	0
4501	0
4502	0
4503	0
4504	1
4505	1
4506	0
4507	1
4508	1
4509	0
4510	0
4511	1
4512	0
4513	0
4514	2
4515	1
4516	0
4517	1
4518	0
4519	0
4520	1
4521	1
4522	1
4523	2
4524	1
4525	0
4526	0
4527	2
4528	1
4529	2
4530	0
4531	0
4532	0
4533	0
4534	0
4535	0
4536	1
4537	0
4538	0
4539	1
4540	0
4541	1
4542	0
4543	0
4544	0
4545	0
4546	1
4547	2
4548	0
4549	2
4550	1
4551	0
4552	1
4553	2
4554	1
4555	0
4556	1
4557	0
4558	0
4559	0
4560	0
4561	0
4562	0
4563	2
4564	1
4565	0
4566	0
4567	1
4568	0
4569	0
4570	0
4571	0
4572	0
4573	0
4574	0
4575	0
4576	0
4577	0
4578	0
4579	1
4580	1
4581	1
4582	0
4583	1
4584	0
4585	0
4586	1
4587	0
4588	1
4589	0
4590	0
4591	2
4592	1
4593	2
4594	1
4595	0
4596	0
4597	1
4598	0
4599	0
4600	1
4601	0
4602	0
4603	0
4604	0
4605	0
4606	0
4607	0
4608	0
4609	0
4610	1
4611	1
4612	1
4613	1
4614	0
4615	0
4616	0
4617	0
4618	0
4619	1
4620	0
4621	0
4622	1
4623	0
4624	1
4625	1
4626	0
4627	0
4628	1
4629	0
4630	1
4631	0
4632	1
4633	1
4634	1
4635	1
4636	2
4637	6
4638	4
4639	2
4640	1
4641	4
4642	0
4643	1
4644	0
4645	0
4646	1
4647	0
4648	0
4649	1
4650	2
4651	0
4652	0
4653	1
4654	0
4655	2
4656	1
4657	0
4658	0
4659	0
4660	1
4661	0
4662	0
4663	0
4664	0
4665	0
4666	0
4667	0
4668	1
4669	0
4670	1
4671	0
4672	1
4673	0
4674	0
4675	1
4676	0
4677	1
4678	0
4679	1
4680	0
4681	0
4682	0
4683	0
4684	0
4685	0
4686	0
4687	0
4688	0
4689	2
4690	0
4691	0
4692	0
4693	0
4694	1
4695	1
4696	0
4697	1
4698	0
4699	0
4700	0
4701	0
4702	0
4703	0
4704	0
4705	0
4706	1
4707	3
4708	0
4709	1
4710	0
4711	1
4712	0
4713	0
4714	0
4715	0
4716	0
4717	0
4718	0
4719	0
4720	0
4721	0
4722	0
4723	0
4724	0
4725	0
4726	0
4727	0
4728	1
4729	0
4730	0
4731	0
4732	0
4733	1
4734	0
4735	0
4736	0
4737	0
4738	0
4739	0
4740	0
4741	1
4742	0
4743	0
4744	0
4745	0
4746	0
4747	0
4748	1
4749	0
4750	0
4751	1
4752	1
4753	0
4754	0
4755	0
4756	0
4757	0
4758	0
4759	0
4760	0
4761	1
4762	1
4763	1
4764	0
4765	0
4766	1
4767	1
4768	0
4769	0
4770	1
4771	0
4772	0
4773	0
4774	1
4775	0
4776	0
4777	0
4778	0
4779	0
4780	0
4781	0
4782	0
4783	0
4784	0
4785	0
4786	0
4787	0
4788	0
4789	0
4790	0
4791	0
4792	0
4793	0
4794	0
4795	0
4796	0
4797	0
4798	1
4799	0
4800	0
4801	0
4802	0
4803	1
4804	0
4805	0
4806	0
4807	0
4808	0
4809	0
4810	0
4811	0
4812	0
4813	1
4814	0
4815	1
4816	0
4817	1
4818	0
4819	0
4820	0
4821	0
4822	0
4823	0
4824	0
4825	0
4826	0
4827	0
4828	0
4829	1
4830	0
4831	1
4832	0
4833	1
4834	2
4835	0
4836	0
4837	2
4838	0
4839	0
4840	0
4841	1
4842	0
4843	1
4844	0
4845	0
4846	3
4847	0
4848	0
4849	0
4850	1
4851	2
4852	1
4853	1
4854	2
4855	0
4856	1
4857	0
4858	0
4859	1
4860	1
4861	0
4862	0
4863	0
4864	2
4865	0
4866	0
4867	0
4868	0
4869	0
4870	0
4871	1
4872	0
4873	0
4874	0
4875	0
4876	3
4877	0
4878	0
4879	1
4880	1
4881	0
4882	0
4883	0
4884	0
4885	0
4886	0
4887	1
4888	1
4889	1
4890	1
4891	0
4892	0
4893	0
4894	0
4895	0
4896	0
4897	0
4898	0
4899	0
4900	0
4901	0
4902	1
4903	1
4904	0
4905	0
4906	0
4907	0
4908	1
4909	1
4910	0
4911	1
4912	0
4913	0
4914	0
4915	1
4916	0
4917	0
4918	1
4919	0
4920	1
4921	0
4922	0
4923	0
4924	0
4925	0
4926	0
4927	0
4928	2
4929	2
4930	1
4931	0
4932	1
4933	0
4934	0
4935	0
4936	0
4937	0
4938	0
4939	1
4940	1
4941	1
4942	0
4943	1
4944	1
4945	0
4946	0
4947	0
4948	1
4949	0
4950	0
4951	0
4952	1
4953	0
4954	0
4955	0
4956	1
4957	0
4958	1
4959	0
4960	2
4961	0
4962	0
4963	0
4964	0
4965	0
4966	0
4967	0
4968	1
4969	0
4970	1
4971	2
4972	0
4973	0
4974	0
4975	1
4976	1
4977	0
4978	0
4979	1
4980	1
4981	0
4982	0
4983	0
4984	0
4985	0
4986	0
4987	2
4988	1
4989	1
4990	0
4991	1
4992	0
4993	0
4994	0
4995	0
4996	0
4997	0
4998	1
4999	0
5000	0
5001	1
5002	1
5003	1
5004	0
5005	0
5006	0
5007	1
5008	0
5009	0
5010	0
5011	1
5012	1
5013	0
5014	1
5015	0
5016	0
5017	0
5018	0
5019	2
5020	0
5021	0
5022	0
5023	0
5024	0
5025	0
5026	1
5027	0
5028	0
5029	0
5030	0
5031	0
5032	0
5033	0
5034	1
5035	0
5036	1
5037	1
5038	0
5039	0
5040	0
5041	0
5042	1
5043	0
5044	0
5045	1
5046	1
5047	1
5048	0
5049	0
5050	0
5051	0
5052	0
5053	0
5054	0
5055	0
5056	0
5057	0
5058	1
5059	0
5060	0
5061	1
5062	0
5063	0
5064	1
5065	0
5066	1
5067	0
5068	0
5069	1
5070	0
5071	0
5072	0
5073	0
5074	0
5075	0
5076	0
5077	0
5078	0
5079	0
5080	0
5081	0
5082	1
5083	1
5084	1
5085	0
5086	0
5087	1
5088	0
5089	0
5090	0
5091	0
5092	0
5093	1
5094	1
5095	1
5096	1
5097	0
5098	0
5099	0
5100	0
5101	0
5102	0
5103	0
5104	0
5105	0
5106	0
5107	0
5108	0
5109	0
5110	1
5111	2
5112	0
5113	0
5114	1
5115	1
5116	1
5117	0
5118	0
5119	0
5120	0
5121	0
5122	1
5123	0
5124	1
5125	0
5126	0
5127	0
5128	0
5129	1
5130	1
5131	0
5132	0
5133	0
5134	0
5135	0
5136	0
5137	1
5138	3
5139	0
5140	0
5141	1
5142	1
5143	0
5144	1
5145	2
5146	0
5147	0
5148	0
5149	0
5150	1
5151	0
5152	1
5153	0
5154	0
5155	0
5156	0
5157	0
5158	0
5159	0
5160	0
5161	0
5162	1
5163	1
5164	0
5165	0
5166	0
5167	1
5168	0
5169	0
5170	1
5171	0
5172	0
5173	0
5174	0
5175	0
5176	0
5177	0
5178	1
5179	0
5180	3
5181	0
5182	0
5183	1
5184	0
5185	1
5186	0
5187	0
5188	0
5189	2
5190	0
5191	0
5192	1
5193	1
5194	1
5195	0
5196	1
5197	0
5198	1
5199	1
5200	0
5201	1
5202	0
5203	1
5204	0
5205	0
5206	0
5207	0
5208	0
5209	0
5210	1
5211	1
5212	1
5213	0
5214	0
5215	1
5216	0
5217	1
5218	1
5219	0
5220	0
5221	0
5222	1
5223	0
5224	0
5225	1
5226	1
5227	2
5228	0
5229	0
5230	0
5231	0
5232	0
5233	1
5234	1
5235	1
5236	0
5237	1
5238	1
5239	0
5240	0
5241	0
5242	0
5243	0
5244	0
5245	1
5246	0
5247	0
5248	1
5249	0
5250	1
5251	1
5252	1
5253	0
5254	0
5255	0
5256	0
5257	0
5258	1
5259	0
5260	2
5261	2
5262	0
5263	0
5264	0
5265	1
5266	1
5267	0
5268	0
5269	0
5270	0
5271	0
5272	0
5273	0
5274	1
5275	0
5276	1
5277	0
5278	0
5279	0
5280	0
5281	0
5282	0
5283	1
5284	0
5285	0
5286	0
5287	1
5288	0
5289	0
5290	0
5291	3
5292	0
5293	1
5294	1
5295	0
5296	1
5297	0
5298	0
5299	0
5300	0
5301	0
5302	0
5303	0
5304	0
5305	0
5306	0
5307	0
5308	0
5309	0
5310	0
5311	0
5312	0
5313	0
5314	0
5315	0
5316	1
5317	0
5318	0
5319	1
5320	1
5321	1
5322	1
5323	0
5324	1
5325	0
5326	1
5327	0
5328	1
5329	0
5330	0
5331	0
5332	2
5333	0
5334	1
5335	0
5336	0
5337	0
5338	1
5339	0
5340	0
5341	0
5342	0
5343	0
5344	0
5345	0
5346	0
5347	0
5348	0
5349	0
5350	1
5351	1
5352	0
5353	0
5354	1
5355	0
5356	0
5357	0
5358	0
5359	0
5360	0
5361	0
5362	0
5363	1
5364	2
5365	0
5366	0
5367	0
5368	2
5369	0
5370	2
5371	0
5372	0
5373	0
5374	0
5375	0
5376	0
5377	0
5378	0
5379	1
5380	0
5381	1
5382	0
5383	0
5384	1
5385	0
5386	0
5387	0
5388	0
5389	1
5390	1
5391	0
5392	1
5393	1
5394	1
5395	0
5396	0
5397	0
5398	0
5399	1
5400	0
5401	2
5402	0
5403	1
5404	0
5405	0
5406	0
5407	1
5408	1
5409	0
5410	0
5411	0
5412	0
5413	0
5414	0
5415	0
5416	0
5417	0
5418	0
5419	0
5420	0
5421	0
5422	2
5423	0
5424	1
5425	0
5426	0
5427	0
5428	0
5429	0
5430	0
5431	0
5432	2
5433	1
5434	0
5435	2
5436	0
5437	0
5438	0
5439	0
5440	0
5441	0
5442	0
5443	0
5444	0
5445	0
5446	0
5447	0
5448	0
5449	2
5450	0
5451	0
5452	0
5453	0
5454	0
5455	0
5456	1
5457	1
5458	0
5459	0
5460	0
5461	0
5462	0
5463	0
5464	0
5465	0
5466	0
5467	0
5468	0
5469	0
5470	1
5471	0
5472	0
5473	0
5474	0
5475	0
5476	0
5477	0
5478	0
5479	0
5480	0
5481	0
5482	0
5483	0
5484	0
5485	0
5486	0
5487	1
5488	0
5489	0
5490	0
5491	0
5492	0
5493	0
5494	0
5495	1
5496	0
5497	0
5498	0
5499	1
5500	0
5501	0
5502	0
5503	0
5504	0
5505	0
5506	0
5507	0
5508	0
5509	1
5510	0
5511	2
5512	1
5513	1
5514	0
5515	0
5516	0
5517	0
5518	2
5519	0
5520	0
5521	1
5522	1
5523	0
5524	0
5525	0
5526	1
5527	0
5528	0
5529	0
5530	0
5531	0
5532	1
5533	0
5534	0
5535	1
5536	1
5537	2
5538	0
5539	0
5540	0
5541	1
5542	0
5543	0
5544	0
5545	0
5546	2
5547	0
5548	0
5549	0
5550	2
5551	0
5552	0
5553	0
5554	0
5555	0
5556	0
5557	0
5558	1
5559	1
5560	0
5561	0
5562	1
5563	0
5564	0
5565	0
5566	1
5567	0
5568	0
5569	0
5570	0
5571	0
5572	0
5573	0
5574	0
5575	0
5576	0
5577	0
5578	0
5579	0
5580	0
5581	0
5582	0
5583	0
5584	0
5585	2
5586	0
5587	0
5588	1
5589	0
5590	1
5591	0
5592	0
5593	0
5594	0
5595	0
5596	1
5597	0
5598	0
5599	1
5600	0
5601	0
5602	0
5603	0
5604	0
5605	0
5606	0
5607	0
5608	0
5609	1
5610	0
5611	0
5612	0
5613	1
5614	0
5615	1
5616	0
5617	1
5618	2
5619	0
5620	0
5621	0
5622	0
5623	0
5624	0
5625	0
5626	2
5627	0
5628	1
5629	0
5630	0
5631	0
5632	0
5633	1
5634	0
5635	0
5636	1
5637	1
5638	0
5639	1
5640	0
5641	1
5642	0
5643	0
5644	0
5645	0
5646	1
5647	0
5648	0
5649	1
5650	0
5651	0
5652	0
5653	0
5654	0
5655	0
5656	0
5657	0
5658	0
5659	1
5660	0
5661	0
5662	2
5663	0
5664	0
5665	1
5666	0
5667	1
5668	1
5669	0
5670	0
5671	0
5672	1
5673	1
5674	0
5675	0
5676	0
5677	0
5678	0
5679	0
5680	0
5681	0
5682	0
5683	0
5684	1
5685	1
5686	0
5687	0
5688	0
5689	0
5690	0
5691	1
5692	0
5693	0
5694	0
5695	0
5696	0
5697	0
5698	0
5699	0
5700	0
5701	1
5702	0
5703	0
5704	1
5705	0
5706	2
5707	0
5708	0
5709	0
5710	0
5711	1
5712	1
5713	0
5714	0
5715	1
5716	0
5717	0
5718	0
5719	0
5720	0
5721	1
5722	0
5723	1
5724	0
5725	0
5726	0
5727	0
5728	1
5729	0
5730	0
5731	0
5732	1
5733	0
5734	0
5735	1
5736	0
5737	0
5738	0
5739	0
5740	0
5741	0
5742	1
5743	0
5744	0
5745	1
5746	0
5747	0
5748	0
5749	0
5750	0
5751	0
5752	0
5753	0
5754	2
5755	0
5756	1
5757	0
5758	0
5759	0
5760	0
5761	0
5762	1
5763	0
5764	0
5765	0
5766	2
5767	0
5768	0
5769	0
5770	0
5771	0
5772	0
5773	0
5774	0
5775	1
5776	1
5777	0
5778	1
5779	4
5780	1
5781	1
5782	4
5783	0
5784	0
5785	0
5786	0
5787	1
5788	1
5789	0
5790	1
5791	0
5792	0
5793	0
5794	1
5795	0
5796	0
5797	0
5798	0
5799	0
5800	0
5801	2
5802	0
5803	0
5804	2
5805	0
5806	2
5807	1
5808	1
5809	0
5810	0
5811	0
5812	0
5813	0
5814	1
5815	1
5816	1
5817	0
5818	0
5819	2
5820	0
5821	0
5822	0
5823	0
5824	0
5825	1
5826	0
5827	0
5828	0
5829	0
5830	0
5831	1
5832	1
5833	0
5834	0
5835	0
5836	0
5837	0
5838	0
5839	0
5840	1
5841	0
5842	1
5843	1
5844	0
5845	2
5846	0
5847	0
5848	0
5849	0
5850	1
5851	0
5852	0
5853	0
5854	0
5855	0
5856	0
5857	0
5858	2
5859	0
5860	0
5861	0
5862	0
5863	0
5864	0
5865	0
5866	0
5867	0
5868	1
5869	0
5870	0
5871	0
5872	0
5873	0
5874	0
5875	1
5876	0
5877	0
5878	0
5879	0
5880	0
5881	0
5882	1
5883	1
5884	1
5885	0
5886	0
5887	0
5888	1
5889	0
5890	0
5891	0
5892	0
5893	0
5894	0
5895	1
5896	0
5897	0
5898	0
5899	0
5900	0
5901	1
5902	0
5903	0
5904	0
5905	0
5906	0
5907	0
5908	1
5909	0
5910	0
5911	0
5912	0
5913	0
5914	0
5915	0
5916	0
5917	0
5918	0
5919	0
5920	0
5921	0
5922	0
5923	0
5924	0
5925	0
5926	1
5927	0
5928	0
5929	0
5930	0
5931	0
5932	0
5933	0
5934	0
5935	0
5936	0
5937	0
5938	0
5939	0
5940	1
5941	1
5942	0
5943	0
5944	0
5945	0
5946	2
5947	0
5948	0
5949	0
5950	0
5951	0
5952	1
5953	0
5954	0
5955	0
5956	0
5957	0
5958	0
5959	0
5960	1
5961	0
5962	0
5963	0
5964	0
5965	0
5966	1
5967	1
5968	0
5969	1
5970	0
5971	0
5972	1
5973	0
5974	0
5975	0
5976	0
5977	0
5978	0
5979	0
5980	0
5981	0
5982	1
5983	0
5984	0
5985	0
5986	0
5987	1
5988	0
5989	0
5990	2
5991	0
5992	1
5993	0
5994	0
5995	0
5996	0
5997	1
5998	0
5999	1
6000	1
6001	0
6002	1
6003	1
6004	0
6005	0
6006	1
6007	0
6008	0
6009	0
6010	0
6011	1
6012	1
6013	0
6014	0
6015	0
6016	1
6017	0
6018	1
6019	1
6020	0
6021	0
6022	0
6023	0
6024	1
6025	0
6026	1
6027	0
6028	0
6029	0
6030	0
6031	0
6032	0
6033	0
6034	0
6035	0
6036	0
6037	0
6038	0
6039	0
6040	0
6041	0
6042	0
6043	0
6044	3
6045	1
6046	0
6047	0
6048	0
6049	0
6050	0
6051	0
6052	0
6053	0
6054	0
6055	1
6056	0
6057	0
6058	1
6059	0
6060	0
6061	0
6062	0
6063	0
6064	1
6065	0
6066	2
6067	1
6068	1
6069	0
6070	1
6071	0
6072	2
6073	0
6074	0
6075	0
6076	3
6077	0
6078	0
6079	0
6080	0
6081	0
6082	0
6083	0
6084	0
6085	0
6086	1
6087	0
6088	0
6089	0
6090	0
6091	0
6092	0
6093	0
6094	0
6095	0
6096	0
6097	0
6098	0
6099	2
6100	0
6101	0
6102	0
6103	1
6104	0
6105	0
6106	0
6107	0
6108	1
6109	0
6110	0
6111	2
6112	0
6113	1
6114	0
6115	0
6116	0
6117	0
6118	0
6119	1
6120	0
6121	0
6122	0
6123	0
6124	0
6125	0
6126	1
6127	0
6128	0
6129	0
6130	1
6131	1
6132	0
6133	0
6134	0
6135	0
6136	0
6137	0
6138	0
6139	0
6140	0
6141	0
6142	0
6143	0
6144	0
6145	0
6146	1
6147	0
6148	0
6149	0
6150	1
6151	0
6152	0
6153	0
6154	0
6155	0
6156	0
6157	1
6158	0
6159	0
6160	0
6161	1
6162	0
6163	0
6164	0
6165	0
6166	0
6167	0
6168	0
6169	0
6170	0
6171	1
6172	0
6173	1
6174	0
6175	1
6176	0
6177	1
6178	0
6179	1
6180	0
6181	0
6182	1
6183	0
6184	0
6185	0
6186	0
6187	0
6188	0
6189	0
6190	1
6191	0
6192	2
6193	2
6194	0
6195	0
6196	0
6197	0
6198	0
6199	0
6200	1
6201	0
6202	0
6203	0
6204	0
6205	0
6206	0
6207	0
6208	0
6209	0
6210	0
6211	1
6212	0
6213	0
6214	0
6215	0
6216	0
6217	1
6218	0
6219	0
6220	0
6221	0
6222	0
6223	0
6224	0
6225	0
6226	0
6227	1
6228	1
6229	1
6230	0
6231	0
6232	0
6233	0
6234	0
6235	0
6236	0
6237	1
6238	0
6239	0
6240	0
6241	0
6242	0
6243	0
6244	0
6245	0
6246	0
6247	0
6248	0
6249	0
6250	0
6251	0
6252	0
6253	0
6254	0
6255	0
6256	0
6257	0
6258	0
6259	0
6260	0
6261	0
6262	1
6263	1
6264	0
6265	0
6266	0
6267	0
6268	1
6269	0
6270	0
6271	0
6272	1
6273	0
6274	0
6275	0
6276	0
6277	1
6278	0
6279	0
6280	0
6281	0
6282	0
6283	0
6284	0
6285	0
6286	0
6287	1
6288	0
6289	1
6290	1
6291	0
6292	0
6293	1
6294	0
6295	0
6296	0
6297	0
6298	0
6299	0
6300	0
6301	0
6302	1
6303	1
6304	0
6305	1
6306	0
6307	0
6308	0
6309	0
6310	1
6311	0
6312	0
6313	0
6314	0
6315	1
6316	0
6317	0
6318	0
6319	0
6320	0
6321	1
6322	0
6323	0
6324	0
6325	0
6326	0
6327	0
6328	0
6329	0
6330	0
6331	0
6332	0
6333	0
6334	0
6335	3
6336	0
6337	0
6338	0
6339	0
6340	0
6341	0
6342	0
6343	0
6344	0
6345	1
6346	0
6347	0
6348	0
6349	1
6350	0
6351	0
6352	3
6353	0
6354	0
6355	0
6356	0
6357	0
6358	0
6359	0
6360	0
6361	1
6362	0
6363	0
6364	0
6365	0
6366	0
6367	0
6368	0
6369	0
6370	0
6371	0
6372	1
6373	0
6374	0
6375	0
6376	2
6377	0
6378	0
6379	0
6380	0
6381	0
6382	0
6383	0
6384	0
6385	0
6386	0
6387	1
6388	1
6389	1
6390	2
6391	1
6392	0
6393	1
6394	0
6395	0
6396	0
6397	1
6398	0
6399	0
6400	0
6401	0
6402	0
6403	0
6404	0
6405	0
6406	0
6407	1
6408	0
6409	0
6410	0
6411	1
6412	0
6413	0
6414	1
6415	0
6416	1
6417	0
6418	0
6419	1
6420	0
6421	0
6422	0
6423	0
6424	0
6425	0
6426	0
6427	0
6428	0
6429	0
6430	0
6431	0
6432	0
6433	0
6434	0
6435	0
6436	1
6437	0
6438	0
6439	1
6440	0
6441	0
6442	0
6443	2
6444	0
6445	0
6446	0
6447	0
6448	1
6449	0
6450	0
6451	0
6452	0
6453	0
6454	1
6455	0
6456	1
6457	1
6458	0
6459	0
6460	0
6461	0
6462	0
6463	0
6464	0
6465	0
6466	0
6467	0
6468	0
6469	0
6470	1
6471	0
6472	0
6473	0
6474	1
6475	0
6476	0
6477	0
6478	0
6479	0
6480	0
6481	0
6482	0
6483	0
6484	0
6485	0
6486	0
6487	0
6488	0
6489	0
6490	0
6491	0
6492	0
6493	0
6494	1
6495	0
6496	0
6497	1
6498	0
6499	0
6500	0
6501	0
6502	1
6503	0
6504	0
6505	0
6506	0
6507	0
6508	1
6509	0
6510	0
6511	0
6512	0
6513	1
6514	1
6515	0
6516	0
6517	0
6518	0
6519	0
6520	1
6521	0
6522	0
6523	0
6524	0
6525	0
6526	0
6527	0
6528	0
6529	0
6530	1
6531	0
6532	0
6533	0
6534	1
6535	0
6536	0
6537	0
6538	0
6539	0
6540	0
6541	0
6542	0
6543	0
6544	0
6545	1
6546	0
6547	0
6548	0
6549	0
6550	0
6551	0
6552	0
6553	0
6554	0
6555	0
6556	0
6557	0
6558	0
6559	0
6560	0
6561	0
6562	1
6563	0
6564	1
6565	0
6566	0
6567	0
6568	0
6569	0
6570	0
6571	0
6572	0
6573	0
6574	0
6575	0
6576	0
6577	0
6578	0
6579	0
6580	1
6581	1
6582	0
6583	0
6584	1
6585	0
6586	1
6587	0
6588	0
6589	0
6590	0
6591	1
6592	0
6593	0
6594	0
6595	0
6596	0
6597	0
6598	0
6599	0
6600	0
6601	0
6602	0
6603	0
6604	0
6605	0
6606	0
6607	0
6608	1
6609	0
6610	0
6611	0
6612	0
6613	0
6614	1
6615	0
6616	0
6617	0
6618	0
6619	0
6620	0
6621	0
6622	0
6623	0
6624	1
6625	0
6626	1
6627	0
6628	0
6629	0
6630	0
6631	0
6632	0
6633	0
6634	0
6635	0
6636	0
6637	0
6638	0
6639	0
6640	1
6641	1
6642	0
6643	1
6644	0
6645	0
6646	0
6647	0
6648	1
6649	0
6650	0
6651	0
6652	0
6653	0
6654	1
6655	0
6656	0
6657	0
6658	0
6659	0
6660	0
6661	0
6662	0
6663	1
6664	2
6665	1
6666	0
6667	0
6668	0
6669	1
6670	0
6671	0
6672	0
6673	0
6674	0
6675	0
6676	0
6677	0
6678	0
6679	0
6680	0
6681	0
6682	0
6683	0
6684	0
6685	0
6686	0
6687	0
6688	0
6689	0
6690	0
6691	0
6692	0
6693	1
6694	0
6695	0
6696	1
6697	0
6698	0
6699	0
6700	0
6701	0
6702	0
6703	0
6704	0
6705	0
6706	0
6707	0
6708	0
6709	0
6710	0
6711	1
6712	0
6713	1
6714	2
6715	0
6716	0
6717	0
6718	0
6719	0
6720	0
6721	0
6722	0
6723	0
6724	0
6725	1
6726	0
6727	0
6728	0
6729	1
6730	0
6731	0
6732	0
6733	0
6734	0
6735	0
6736	0
6737	1
6738	0
6739	0
6740	0
6741	0
6742	0
6743	0
6744	0
6745	0
6746	1
6747	0
6748	0
6749	0
6750	0
6751	0
6752	0
6753	0
6754	0
6755	1
6756	0
6757	0
6758	0
6759	0
6760	0
6761	0
6762	0
6763	0
6764	0
6765	1
6766	0
6767	0
6768	0
6769	0
6770	0
6771	0
6772	0
6773	0
6774	0
6775	0
6776	0
6777	0
6778	1
6779	1
6780	0
6781	0
6782	0
6783	2
6784	0
6785	0
6786	0
6787	0
6788	0
6789	0
6790	0
6791	0
6792	0
6793	0
6794	0
6795	0
6796	0
6797	0
6798	0
6799	1
6800	0
6801	0
6802	0
6803	0
6804	0
6805	0
6806	0
6807	0
6808	0
6809	0
6810	0
6811	0
6812	0
6813	0
6814	0
6815	0
6816	0
6817	0
6818	0
6819	0
6820	1
6821	0
6822	0
6823	0
6824	1
6825	0
6826	0
6827	0
6828	0
6829	0
6830	0
6831	0
6832	0
6833	0
6834	0
6835	0
6836	1
6837	1
6838	1
6839	2
6840	3
6841	9
6842	3
6843	5
6844	5
6845	3
6846	1
6847	1
6848	1
6849	0
6850	0
6851	2
6852	0
6853	0
6854	0
6855	1
6856	0
6857	0
6858	0
6859	0
6860	0
6861	0
6862	0
6863	1
6864	0
6865	0
6866	0
6867	1
6868	0
6869	0
6870	0
6871	0
6872	0
6873	0
6874	0
6875	0
6876	2
6877	0
6878	0
6879	0
6880	0
6881	0
6882	0
6883	0
6884	0
6885	0
6886	0
6887	0
6888	0
6889	0
6890	0
6891	0
6892	1
6893	0
6894	0
6895	0
6896	0
6897	0
6898	0
6899	0
6900	0
6901	0
6902	0
6903	0
6904	1
6905	0
6906	1
6907	0
6908	0
6909	0
6910	0
6911	0
6912	0
6913	0
6914	0
6915	0
6916	1
6917	0
6918	0
6919	0
6920	1
6921	0
6922	0
6923	0
6924	0
6925	0
6926	0
6927	0
6928	0
6929	0
6930	0
6931	0
6932	0
6933	0
6934	0
6935	1
6936	0
6937	0
6938	0
6939	0
6940	0
6941	0
6942	0
6943	0
6944	1
6945	0
6946	0
6947	0
6948	0
6949	0
6950	0
6951	0
6952	0
6953	0
6954	0
6955	0
6956	0
6957	0
6958	0
6959	0
6960	1
6961	0
6962	0
6963	0
6964	0
6965	1
6966	0
6967	1
6968	0
6969	0
6970	1
6971	0
6972	0
6973	0
6974	0
6975	0
6976	0
6977	0
6978	0
6979	0
6980	0
6981	0
6982	0
6983	0
6984	0
6985	0
6986	0
6987	0
6988	0
6989	0
6990	0
6991	0
6992	0
6993	1
6994	0
6995	1
6996	1
6997	0
6998	0
6999	0
7000	0
7001	0
7002	0
7003	0
7004	0
7005	0
7006	0
7007	0
7008	0
7009	0
7010	0
7011	0
7012	0
7013	0
7014	0
7015	0
7016	0
7017	0
7018	1
7019	0
7020	0
7021	0
7022	0
7023	0
7024	0
7025	0
7026	0
7027	0
7028	0
7029	0
7030	0
7031	0
7032	0
7033	0
7034	0
7035	1
7036	0
7037	0
7038	1
7039	0
7040	0
7041	0
7042	0
7043	0
7044	0
7045	0
7046	1
7047	0
7048	0
7049	1
7050	0
7051	0
7052	0
7053	0
7054	0
7055	0
7056	0
7057	0
7058	0
7059	0
7060	1
7061	0
7062	0
7063	0
7064	0
7065	0
7066	0
7067	0
7068	0
7069	0
7070	0
7071	0
7072	0
7073	0
7074	0
7075	0
7076	0
7077	0
7078	0
7079	0
7080	0
7081	0
7082	0
7083	0
7084	0
7085	0
7086	0
7087	0
7088	0
7089	0
7090	0
7091	0
7092	0
7093	0
7094	1
7095	0
7096	0
7097	0
7098	0
7099	0
7100	0
7101	0
7102	0
7103	0
7104	0
7105	0
7106	0
7107	0
7108	1
7109	0
7110	0
7111	0
7112	0
7113	1
7114	0
7115	0
7116	0
7117	0
7118	0
7119	0
7120	1
7121	1
7122	0
7123	0
7124	0
7125	0
7126	0
7127	0
7128	0
7129	1
7130	0
7131	0
7132	0
7133	0
7134	0
7135	0
7136	0
7137	0
7138	0
7139	0
7140	0
7141	0
7142	1
7143	0
7144	0
7145	0
7146	0
7147	0
7148	0
7149	1
7150	0
7151	0
7152	0
7153	0
7154	0
7155	1
7156	0
7157	0
7158	0
7159	2
7160	0
7161	0
7162	0
7163	0
7164	0
7165	0
7166	0
7167	1
7168	0
7169	0
7170	0
7171	1
7172	0
7173	0
7174	0
7175	0
7176	0
7177	0
7178	0
7179	0
7180	0
7181	1
7182	0
7183	0
7184	0
7185	0
7186	0
7187	0
7188	0
7189	0
7190	0
7191	0
7192	0
7193	0
7194	0
7195	0
7196	0
7197	0
7198	1
7199	0
7200	0
7201	0
7202	0
7203	0
7204	0
7205	1
7206	0
7207	0
7208	0
7209	0
7210	0
7211	0
7212	0
7213	0
7214	0
7215	0
7216	0
7217	0
7218	0
7219	0
7220	0
7221	0
7222	0
7223	1
7224	0
7225	0
7226	0
7227	0
7228	0
7229	0
7230	1
7231	0
7232	0
7233	0
7234	0
7235	0
7236	0
7237	1
7238	0
7239	0
7240	0
7241	0
7242	0
7243	0
7244	0
7245	0
7246	0
7247	0
7248	0
7249	0
7250	0
7251	0
7252	0
7253	0
7254	0
7255	1
7256	0
7257	0
7258	0
7259	0
7260	0
7261	0
7262	0
7263	0
7264	0
7265	0
7266	0
7267	0
7268	1
7269	0
7270	0
7271	1
7272	0
7273	0
7274	0
7275	0
7276	0
7277	0
7278	0
7279	0
7280	1
7281	0
7282	0
7283	1
7284	0
7285	1
7286	1
7287	0
7288	0
7289	0
7290	0
7291	0
7292	0
7293	0
7294	0
7295	0
7296	0
7297	0
7298	0
7299	0
7300	0
7301	0
7302	0
7303	0
7304	0
7305	0
7306	0
7307	0
7308	0
7309	0
7310	1
7311	0
7312	0
7313	0
7314	0
7315	0
7316	0
7317	1
7318	1
7319	0
7320	0
7321	0
7322	0
7323	0
7324	0
7325	0
7326	1
7327	0
7328	0
7329	1
7330	0
7331	0
7332	0
7333	0
7334	0
7335	0
7336	0
7337	0
7338	0
7339	0
7340	1
7341	0
7342	0
7343	1
7344	0
7345	1
7346	0
7347	0
7348	0
7349	0
7350	0
7351	0
7352	0
7353	0
7354	0
7355	0
7356	1
7357	0
7358	1
7359	0
7360	0
7361	0
7362	1
7363	0
7364	0
7365	0
7366	0
7367	1
7368	0
7369	0
7370	1
7371	0
7372	0
7373	0
7374	0
7375	0
7376	0
7377	0
7378	0
7379	0
7380	0
7381	0
7382	0
7383	0
7384	0
7385	0
7386	0
7387	0
7388	0
7389	0
7390	0
7391	0
7392	0
7393	0
7394	0
7395	0
7396	0
7397	0
7398	1
7399	0
7400	0
7401	0
7402	0
7403	0
7404	0
7405	0
7406	0
7407	0
7408	0
7409	0
7410	0
7411	0
7412	0
7413	0
7414	0
7415	0
7416	0
7417	0
7418	0
7419	0
7420	0
7421	0
7422	0
7423	0
7424	0
7425	0
7426	0
7427	0
7428	1
7429	0
7430	0
7431	0
7432	0
7433	0
7434	0
7435	0
7436	0
7437	0
7438	0
7439	0
7440	0
7441	0
7442	0
7443	0
7444	0
7445	0
7446	0
7447	0
7448	1
7449	0
7450	0
7451	0
7452	0
7453	0
7454	0
7455	0
7456	1
7457	0
7458	0
7459	0
7460	0
7461	0
7462	0
7463	0
7464	0
7465	0
7466	0
7467	0
7468	0
7469	0
7470	0
7471	0
7472	0
7473	1
7474	1
7475	1
7476	0
7477	0
7478	0
7479	0
7480	0
7481	1
7482	0
7483	0
7484	0
7485	1
7486	0
7487	0
7488	0
7489	0
7490	0
7491	1
7492	0
7493	0
7494	0
7495	0
7496	0
7497	0
7498	1
7499	0
7500	0
7501	0
7502	0
7503	0
7504	0
7505	1
7506	0
7507	0
7508	0
7509	0
7510	0
7511	0
7512	0
7513	0
7514	0
7515	0
7516	0
7517	0
7518	0
7519	0
7520	0
7521	0
7522	0
7523	0
7524	0
7525	1
7526	0
7527	0
7528	0
7529	0
7530	0
7531	0
7532	0
7533	0
7534	0
7535	0
7536	0
7537	0
7538	0
7539	0
7540	0
7541	0
7542	1
7543	0
7544	0
7545	0
7546	0
7547	0
7548	1
7549	0
7550	0
7551	0
7552	1
7553	0
7554	0
7555	0
7556	1
7557	0
7558	0
7559	0
7560	0
7561	0
7562	0
7563	1
7564	1
7565	0
7566	0
7567	0
7568	1
7569	0
7570	0
7571	0
7572	0
7573	0
7574	0
7575	0
7576	0
7577	0
7578	0
7579	0
7580	0
7581	0
7582	0
7583	1
7584	0
7585	0
7586	0
7587	0
7588	0
7589	1
7590	0
7591	0
7592	1
7593	0
7594	0
7595	1
7596	0
7597	0
7598	0
7599	1
7600	0
7601	0
7602	0
7603	0
7604	1
7605	0
7606	0
7607	0
7608	0
7609	0
7610	0
7611	0
7612	0
7613	0
7614	0
7615	0
7616	0
7617	0
7618	0
7619	0
7620	0
7621	0
7622	0
7623	1
7624	0
7625	0
7626	0
7627	0
7628	0
7629	0
7630	0
7631	0
7632	0
7633	0
7634	0
7635	0
7636	0
7637	0
7638	2
7639	1
7640	0
7641	0
7642	0
7643	0
7644	0
7645	0
7646	0
7647	1
7648	0
7649	0
7650	0
7651	0
7652	0
7653	0
7654	0
7655	0
7656	1
7657	0
7658	0
7659	1
7660	0
7661	1
7662	0
7663	0
7664	0
7665	0
7666	0
7667	0
7668	0
7669	0
7670	0
7671	0
7672	0
7673	1
7674	0
7675	0
7676	1
7677	0
7678	1
7679	0
7680	0
7681	1
7682	0
7683	0
7684	0
7685	0
7686	0
7687	0
7688	0
7689	0
7690	0
7691	0
7692	0
7693	1
7694	0
7695	0
7696	0
7697	0
7698	0
7699	0
7700	0
7701	0
7702	1
7703	0
7704	1
7705	0
7706	0
7707	0
7708	0
7709	0
7710	0
7711	0
7712	0
7713	0
7714	0
7715	0
7716	0
7717	0
7718	0
7719	0
7720	0
7721	0
7722	0
7723	0
7724	0
7725	2
7726	1
7727	0
7728	0
7729	1
7730	0
7731	0
7732	0
7733	0
7734	0
7735	0
7736	0
7737	0
7738	0
7739	0
7740	0
7741	0
7742	0
7743	0
7744	1
7745	0
7746	0
7747	0
7748	0
7749	0
7750	0
7751	0
7752	0
7753	0
7754	0
7755	0
7756	0
7757	0
7758	0
7759	0
7760	0
7761	0
7762	1
7763	0
7764	0
7765	1
7766	0
7767	0
7768	0
7769	0
7770	0
7771	0
7772	0
7773	0
7774	0
7775	0
7776	0
7777	0
7778	0
7779	0
7780	0
7781	0
7782	0
7783	0
7784	0
7785	0
7786	0
7787	0
7788	0
7789	0
7790	0
7791	0
7792	0
7793	0
7794	0
7795	0
7796	0
7797	0
7798	0
7799	0
7800	0
7801	0
7802	0
7803	1
7804	0
7805	0
7806	0
7807	0
7808	0
7809	0
7810	0
7811	0
7812	0
7813	0
7814	0
7815	0
7816	0
7817	0
7818	0
7819	0
7820	0
7821	0
7822	0
7823	0
7824	0
7825	0
7826	0
7827	0
7828	0
7829	0
7830	0
7831	0
7832	0
7833	0
7834	0
7835	1
7836	0
7837	0
7838	0
7839	0
7840	0
7841	0
7842	1
7843	1
7844	0
7845	0
7846	1
7847	0
7848	0
7849	0
7850	0
7851	0
7852	0
7853	0
7854	0
7855	0
7856	0
7857	0
7858	0
7859	0
7860	0
7861	0
7862	0
7863	1
7864	0
7865	0
7866	0
7867	1
7868	0
7869	0
7870	0
7871	0
7872	1
7873	0
7874	0
7875	0
7876	0
7877	0
7878	0
7879	0
7880	0
7881	0
7882	1
7883	0
7884	0
7885	0
7886	0
7887	0
7888	1
7889	0
7890	1
7891	0
7892	0
7893	0
7894	0
7895	0
7896	0
7897	1
7898	1
7899	0
7900	0
7901	0
7902	0
7903	0
7904	0
7905	0
7906	0
7907	0
7908	0
7909	1
7910	0
7911	0
7912	0
7913	0
7914	0
7915	0
7916	0
7917	0
7918	0
7919	0
7920	0
7921	0
7922	0
7923	0
7924	1
7925	0
7926	0
7927	0
7928	0
7929	0
7930	0
7931	0
7932	0
7933	0
7934	0
7935	0
7936	0
7937	0
7938	1
7939	0
7940	0
7941	0
7942	0
7943	0
7944	0
7945	0
7946	0
7947	0
7948	0
7949	0
7950	1
7951	1
7952	0
7953	0
7954	0
7955	0
7956	0
7957	0
7958	0
7959	0
7960	0
7961	0
7962	0
7963	0
7964	0
7965	0
7966	0
7967	0
7968	0
7969	0
7970	0
7971	0
7972	0
7973	0
7974	0
7975	1
7976	0
7977	0
7978	0
7979	0
7980	0
7981	0
7982	0
7983	0
7984	2
7985	0
7986	0
7987	0
7988	0
7989	1
7990	0
7991	0
7992	1
7993	0
7994	0
7995	0
7996	0
7997	0
7998	0
7999	0
8000	0
8001	0
8002	0
8003	1
8004	0
8005	0
8006	0
8007	0
8008	0
8009	0
8010	0
8011	1
8012	0
8013	0
8014	0
8015	0
8016	1
8017	0
8018	0
8019	0
8020	0
8021	0
8022	0
8023	0
8024	0
8025	0
8026	0
8027	0
8028	0
8029	0
8030	1
8031	0
8032	0
8033	0
8034	0
8035	1
8036	0
8037	0
8038	0
8039	1
8040	1
8041	0
8042	0
8043	0
8044	0
8045	0
8046	1
8047	0
8048	0
8049	0
8050	0
8051	0
8052	0
8053	0
8054	0
8055	0
8056	0
8057	0
8058	0
8059	0
8060	1
8061	0
8062	0
8063	0
8064	0
8065	0
8066	0
8067	0
8068	0
8069	0
8070	0
8071	0
8072	0
8073	0
8074	0
8075	0
8076	0
8077	0
8078	0
8079	0
8080	0
8081	0
8082	0
8083	0
8084	0
8085	0
8086	0
8087	0
8088	0
8089	0
8090	0
8091	0
8092	0
8093	0
8094	0
8095	0
8096	0
8097	0
8098	0
8099	0
8100	0
8101	0
8102	0
8103	0
8104	0
8105	0
8106	0
8107	0
8108	0
8109	0
8110	0
8111	0
8112	0
8113	0
8114	0
8115	0
8116	0
8117	0
8118	0
8119	0
8120	0
8121	0
8122	0
8123	0
8124	0
8125	0
8126	0
8127	0
8128	0
8129	0
8130	0
8131	0
8132	0
8133	0
8134	0
8135	0
8136	0
8137	0
8138	0
8139	0
8140	0
8141	0
8142	0
8143	0
8144	0
8145	0
8146	0
8147	0
8148	0
8149	0
8150	0
8151	0
8152	0
8153	0
8154	0
8155	0
8156	0
8157	0
8158	0
8159	0
8160	0
8161	0
8162	0
8163	0
8164	0
8165	0
8166	0
8167	0
8168	0
8169	0
8170	0
8171	0
8172	0
8173	0
8174	0
8175	0
8176	0
8177	0
8178	0
8179	0
8180	0
8181	0
8182	0
8183	0
8184	0
8185	0
8186	0
8187	0
8188	0
8189	0
8190	0
8191	0
