0	0
1	0
2	0
3	0
4	0
5	0
6	0
7	0
8	0
9	0
10	0
11	0
12	0
13	0
14	0
15	0
16	0
17	0
18	0
19	0
20	0
21	0
22	0
23	0
24	0
25	0
26	0
27	0
28	0
29	0
30	0
31	0
32	0
33	0
34	0
35	0
36	0
37	0
38	0
39	0
40	0
41	0
42	0
43	0
44	0
45	0
46	0
47	0
48	0
49	0
50	0
51	0
52	0
53	0
54	0
55	0
56	0
57	0
58	0
59	0
60	0
61	0
62	0
63	0
64	0
65	0
66	0
67	0
68	0
69	0
70	0
71	0
72	0
73	0
74	0
75	0
76	0
77	0
78	0
79	0
80	0
81	0
82	0
83	0
84	0
85	0
86	0
87	0
88	0
89	0
90	0
91	0
92	0
93	0
94	0
95	0
96	0
97	0
98	0
99	0
100	0
101	0
102	0
103	0
104	0
105	0
106	0
107	0
108	0
109	0
110	0
111	0
112	0
113	0
114	0
115	0
116	1
117	1
118	332
119	1243
120	1993
121	2405
122	2405
123	2485
124	2304
125	2417
126	2390
127	2283
128	2194
129	2283
130	2265
131	2249
132	2152
133	2106
134	2172
135	2153
136	2171
137	2058
138	2124
139	2084
140	2191
141	2047
142	2061
143	2063
144	2027
145	2004
146	2052
147	2053
148	1908
149	1934
150	1957
151	1933
152	1954
153	2031
154	1955
155	1908
156	1844
157	1893
158	1912
159	1965
160	1852
161	1953
162	1802
163	1810
164	1787
165	1841
166	1818
167	1754
168	1865
169	1736
170	1771
171	1734
172	1835
173	1770
174	1757
175	1712
176	1754
177	1764
178	1770
179	1790
180	1763
181	1685
182	1764
183	1656
184	1705
185	1721
186	1747
187	1741
188	1628
189	1625
190	1661
191	1694
192	1721
193	1745
194	1676
195	1698
196	1660
197	1709
198	1667
199	1701
200	1717
201	1679
202	1716
203	1661
204	1647
205	1645
206	1710
207	1819
208	1675
209	1715
210	1739
211	1740
212	1725
213	1729
214	1819
215	1936
216	1839
217	1940
218	1975
219	1956
220	1874
221	1890
222	1917
223	1992
224	1982
225	2015
226	2068
227	1953
228	2156
229	2080
230	2126
231	2204
232	2157
233	2232
234	2180
235	2192
236	2165
237	2125
238	2360
239	2288
240	2270
241	2324
242	2391
243	2353
244	2332
245	2530
246	2484
247	2426
248	2503
249	2617
250	2555
251	2711
252	2748
253	2689
254	2919
255	3018
256	3171
257	3210
258	3481
259	4441
260	6364
261	7914
262	8229
263	6918
264	5236
265	5714
266	8908
267	11185
268	11178
269	8500
270	4786
271	2910
272	2254
273	2087
274	2097
275	2095
276	2161
277	2123
278	2233
279	2223
280	2119
281	2146
282	2201
283	2425
284	2661
285	3133
286	3332
287	3302
288	2983
289	2775
290	2742
291	3542
292	4673
293	5701
294	5815
295	5041
296	3733
297	2924
298	2910
299	4006
300	4870
301	5034
302	4267
303	3150
304	2363
305	2198
306	2289
307	2949
308	4017
309	4992
310	4848
311	4059
312	2950
313	2167
314	2044
315	1858
316	1835
317	1822
318	1746
319	1821
320	1864
321	1823
322	1913
323	2119
324	2406
325	2667
326	2710
327	2316
328	2078
329	1894
330	1899
331	1783
332	1849
333	1835
334	1811
335	1868
336	1827
337	2094
338	2234
339	2590
340	2842
341	2839
342	2752
343	2324
344	2077
345	1902
346	1975
347	1986
348	2117
349	2123
350	2222
351	2057
352	1995
353	1836
354	1919
355	1828
356	1831
357	1812
358	1905
359	1868
360	1781
361	1867
362	1892
363	1867
364	2016
365	2249
366	2316
367	2245
368	2004
369	1986
370	1800
371	1776
372	1764
373	1776
374	1806
375	1826
376	1785
377	1760
378	1613
379	1714
380	1797
381	1879
382	1815
383	1821
384	1813
385	1877
386	1786
387	1917
388	1911
389	1985
390	2029
391	2027
392	1992
393	2029
394	2069
395	2074
396	2160
397	1999
398	2098
399	2396
400	2985
401	3676
402	4128
403	3748
404	3064
405	2342
406	2051
407	2077
408	2213
409	2060
410	2082
411	1922
412	1976
413	1906
414	1952
415	1920
416	1907
417	1900
418	1939
419	1927
420	1889
421	1814
422	1831
423	1896
424	1820
425	1846
426	1823
427	1847
428	1945
429	1856
430	1853
431	1850
432	1831
433	1852
434	1756
435	1741
436	1673
437	1787
438	1805
439	1772
440	1845
441	1723
442	1735
443	1834
444	1924
445	1857
446	1900
447	1817
448	1787
449	1765
450	1833
451	1759
452	1764
453	1718
454	1743
455	1795
456	1754
457	1769
458	1766
459	1779
460	1691
461	1734
462	1691
463	1797
464	1861
465	2092
466	2350
467	2301
468	2211
469	1898
470	1682
471	1696
472	1619
473	1632
474	1619
475	1640
476	1672
477	1643
478	1657
479	1618
480	1621
481	1599
482	1663
483	1634
484	1551
485	1594
486	1641
487	1667
488	1608
489	1599
490	1634
491	1664
492	1537
493	1567
494	1602
495	1603
496	1609
497	1720
498	1661
499	1696
500	1637
501	1588
502	1553
503	1645
504	1639
505	1576
506	1550
507	1556
508	1611
509	1554
510	1615
511	1577
512	1540
513	1462
514	1511
515	1585
516	1601
517	1572
518	1651
519	1668
520	1600
521	1540
522	1580
523	1568
524	1562
525	1635
526	1677
527	1600
528	1611
529	1635
530	1646
531	1608
532	1633
533	1557
534	1495
535	1658
536	1613
537	1627
538	1661
539	1593
540	1615
541	1649
542	1624
543	1583
544	1631
545	1673
546	1650
547	1679
548	1721
549	1774
550	1777
551	1704
552	1541
553	1473
554	1625
555	1598
556	1539
557	1560
558	1536
559	1548
560	1527
561	1605
562	1677
563	1663
564	1627
565	1567
566	1569
567	1557
568	1512
569	1592
570	1579
571	1475
572	1489
573	1566
574	1554
575	1506
576	1516
577	1506
578	1517
579	1535
580	1488
581	1525
582	1634
583	1703
584	1742
585	1753
586	1581
587	1558
588	1581
589	1524
590	1515
591	1550
592	1555
593	1526
594	1563
595	1656
596	1626
597	1590
598	1572
599	1591
600	1549
601	1570
602	1487
603	1559
604	1528
605	1525
606	1827
607	2404
608	3639
609	4581
610	4743
611	3811
612	2548
613	1787
614	1552
615	1490
616	1484
617	1445
618	1420
619	1474
620	1396
621	1377
622	1397
623	1404
624	1468
625	1558
626	1645
627	1708
628	1663
629	1570
630	1377
631	1381
632	1381
633	1382
634	1368
635	1413
636	1417
637	1347
638	1369
639	1413
640	1382
641	1402
642	1400
643	1397
644	1410
645	1397
646	1379
647	1477
648	1428
649	1401
650	1404
651	1374
652	1375
653	1411
654	1267
655	1368
656	1405
657	1292
658	1395
659	1343
660	1314
661	1410
662	1347
663	1325
664	1421
665	1390
666	1403
667	1359
668	1334
669	1411
670	1433
671	1470
672	1431
673	1387
674	1385
675	1375
676	1490
677	1389
678	1457
679	1495
680	1636
681	2147
682	4280
683	11436
684	24135
685	35068
686	36869
687	28656
688	15527
689	6535
690	4165
691	4264
692	4533
693	3778
694	2480
695	1539
696	1095
697	1029
698	897
699	902
700	877
701	883
702	875
703	904
704	869
705	880
706	833
707	860
708	891
709	897
710	886
711	881
712	889
713	814
714	833
715	810
716	868
717	862
718	903
719	910
720	969
721	1061
722	1015
723	922
724	929
725	822
726	814
727	874
728	832
729	863
730	839
731	849
732	808
733	851
734	844
735	889
736	815
737	847
738	839
739	827
740	821
741	782
742	813
743	773
744	815
745	786
746	852
747	752
748	823
749	847
750	841
751	855
752	805
753	823
754	763
755	790
756	817
757	777
758	840
759	849
760	836
761	774
762	826
763	876
764	1121
765	1553
766	2576
767	3018
768	3097
769	2481
770	1544
771	994
772	865
773	770
774	787
775	786
776	772
777	738
778	784
779	726
780	786
781	798
782	889
783	1103
784	1600
785	2065
786	2245
787	2075
788	1526
789	1124
790	955
791	878
792	828
793	761
794	793
795	751
796	786
797	771
798	807
799	733
800	818
801	691
802	751
803	753
804	747
805	761
806	697
807	747
808	765
809	729
810	764
811	829
812	960
813	963
814	983
815	931
816	776
817	818
818	697
819	714
820	723
821	715
822	675
823	716
824	686
825	726
826	751
827	736
828	787
829	742
830	832
831	1018
832	1071
833	984
834	966
835	796
836	728
837	759
838	688
839	791
840	761
841	858
842	1298
843	1899
844	2743
845	2819
846	2491
847	1617
848	1069
849	777
850	736
851	691
852	693
853	651
854	667
855	672
856	678
857	677
858	678
859	683
860	636
861	686
862	693
863	669
864	704
865	666
866	668
867	690
868	652
869	656
870	643
871	674
872	656
873	658
874	664
875	686
876	631
877	672
878	659
879	702
880	650
881	666
882	707
883	648
884	677
885	653
886	641
887	654
888	668
889	683
890	634
891	685
892	679
893	686
894	624
895	661
896	686
897	672
898	736
899	732
900	741
901	770
902	700
903	744
904	633
905	681
906	651
907	649
908	650
909	647
910	648
911	717
912	728
913	830
914	1139
915	1660
916	2342
917	2525
918	2328
919	1644
920	1055
921	755
922	716
923	624
924	700
925	651
926	763
927	801
928	852
929	832
930	797
931	729
932	649
933	596
934	623
935	647
936	669
937	647
938	692
939	802
940	1280
941	2654
942	5083
943	7227
944	7731
945	6216
946	3617
947	1741
948	968
949	851
950	772
951	812
952	777
953	663
954	602
955	580
956	559
957	561
958	553
959	593
960	569
961	594
962	577
963	591
964	524
965	569
966	569
967	519
968	554
969	533
970	571
971	554
972	511
973	540
974	581
975	576
976	720
977	801
978	1074
979	1160
980	1052
981	836
982	675
983	575
984	492
985	540
986	564
987	553
988	521
989	494
990	532
991	535
992	526
993	522
994	540
995	540
996	562
997	567
998	545
999	547
1000	530
1001	527
1002	513
1003	560
1004	562
1005	523
1006	540
1007	517
1008	551
1009	573
1010	493
1011	512
1012	527
1013	515
1014	539
1015	542
1016	556
1017	482
1018	507
1019	511
1020	533
1021	521
1022	547
1023	518
1024	484
1025	478
1026	566
1027	549
1028	555
1029	533
1030	513
1031	484
1032	525
1033	521
1034	571
1035	560
1036	522
1037	549
1038	552
1039	523
1040	590
1041	536
1042	567
1043	521
1044	572
1045	563
1046	530
1047	522
1048	548
1049	555
1050	528
1051	517
1052	549
1053	577
1054	471
1055	537
1056	532
1057	539
1058	549
1059	523
1060	551
1061	505
1062	490
1063	589
1064	548
1065	519
1066	551
1067	544
1068	507
1069	562
1070	535
1071	500
1072	539
1073	564
1074	539
1075	548
1076	554
1077	552
1078	510
1079	514
1080	546
1081	517
1082	578
1083	525
1084	540
1085	528
1086	569
1087	532
1088	514
1089	515
1090	492
1091	545
1092	496
1093	506
1094	554
1095	525
1096	518
1097	545
1098	499
1099	502
1100	534
1101	511
1102	507
1103	530
1104	539
1105	507
1106	507
1107	516
1108	551
1109	510
1110	540
1111	474
1112	518
1113	516
1114	503
1115	509
1116	501
1117	519
1118	499
1119	490
1120	488
1121	474
1122	479
1123	490
1124	508
1125	710
1126	1049
1127	1328
1128	1500
1129	1350
1130	1029
1131	694
1132	518
1133	444
1134	458
1135	457
1136	461
1137	450
1138	449
1139	395
1140	429
1141	436
1142	461
1143	448
1144	475
1145	469
1146	426
1147	460
1148	444
1149	401
1150	436
1151	427
1152	453
1153	407
1154	415
1155	434
1156	426
1157	411
1158	452
1159	418
1160	420
1161	403
1162	460
1163	449
1164	427
1165	404
1166	417
1167	446
1168	433
1169	428
1170	418
1171	407
1172	456
1173	431
1174	394
1175	414
1176	410
1177	384
1178	422
1179	448
1180	391
1181	345
1182	405
1183	406
1184	415
1185	416
1186	404
1187	414
1188	430
1189	421
1190	370
1191	392
1192	401
1193	424
1194	424
1195	416
1196	405
1197	392
1198	393
1199	379
1200	413
1201	394
1202	408
1203	368
1204	411
1205	431
1206	391
1207	448
1208	455
1209	449
1210	447
1211	418
1212	397
1213	376
1214	407
1215	399
1216	430
1217	353
1218	384
1219	388
1220	396
1221	396
1222	399
1223	417
1224	398
1225	380
1226	395
1227	427
1228	396
1229	387
1230	409
1231	419
1232	433
1233	404
1234	388
1235	374
1236	394
1237	423
1238	411
1239	523
1240	560
1241	554
1242	510
1243	443
1244	392
1245	382
1246	408
1247	388
1248	384
1249	366
1250	381
1251	358
1252	369
1253	378
1254	365
1255	397
1256	346
1257	359
1258	423
1259	387
1260	358
1261	377
1262	444
1263	656
1264	1105
1265	1738
1266	2377
1267	2349
1268	1937
1269	1205
1270	754
1271	472
1272	420
1273	392
1274	379
1275	401
1276	375
1277	377
1278	356
1279	377
1280	388
1281	388
1282	361
1283	374
1284	371
1285	365
1286	365
1287	370
1288	398
1289	394
1290	388
1291	366
1292	357
1293	385
1294	427
1295	342
1296	348
1297	356
1298	336
1299	354
1300	345
1301	356
1302	375
1303	372
1304	390
1305	433
1306	473
1307	406
1308	408
1309	375
1310	371
1311	386
1312	377
1313	390
1314	328
1315	348
1316	319
1317	349
1318	357
1319	367
1320	352
1321	357
1322	350
1323	377
1324	333
1325	377
1326	364
1327	395
1328	394
1329	372
1330	359
1331	355
1332	366
1333	377
1334	338
1335	374
1336	348
1337	353
1338	336
1339	344
1340	386
1341	367
1342	368
1343	366
1344	346
1345	373
1346	329
1347	377
1348	352
1349	337
1350	314
1351	372
1352	346
1353	349
1354	365
1355	350
1356	364
1357	351
1358	328
1359	402
1360	355
1361	377
1362	306
1363	371
1364	334
1365	357
1366	361
1367	331
1368	348
1369	368
1370	420
1371	399
1372	414
1373	428
1374	432
1375	372
1376	365
1377	363
1378	402
1379	342
1380	357
1381	345
1382	423
1383	471
1384	539
1385	640
1386	887
1387	1305
1388	2130
1389	3092
1390	3736
1391	3376
1392	2564
1393	1590
1394	829
1395	629
1396	437
1397	403
1398	361
1399	437
1400	396
1401	404
1402	338
1403	354
1404	367
1405	336
1406	315
1407	322
1408	343
1409	326
1410	343
1411	369
1412	389
1413	324
1414	354
1415	358
1416	345
1417	356
1418	354
1419	368
1420	360
1421	390
1422	337
1423	400
1424	383
1425	377
1426	318
1427	351
1428	334
1429	359
1430	353
1431	332
1432	353
1433	353
1434	338
1435	322
1436	346
1437	332
1438	319
1439	316
1440	381
1441	326
1442	327
1443	299
1444	326
1445	360
1446	338
1447	356
1448	346
1449	312
1450	322
1451	310
1452	334
1453	336
1454	339
1455	317
1456	311
1457	332
1458	325
1459	342
1460	348
1461	344
1462	338
1463	342
1464	296
1465	312
1466	339
1467	367
1468	315
1469	314
1470	337
1471	341
1472	301
1473	312
1474	336
1475	334
1476	350
1477	321
1478	330
1479	342
1480	370
1481	368
1482	406
1483	428
1484	400
1485	388
1486	356
1487	332
1488	354
1489	367
1490	367
1491	403
1492	366
1493	340
1494	312
1495	331
1496	343
1497	341
1498	309
1499	321
1500	321
1501	332
1502	326
1503	304
1504	314
1505	373
1506	322
1507	333
1508	304
1509	325
1510	339
1511	362
1512	310
1513	329
1514	302
1515	343
1516	330
1517	343
1518	330
1519	353
1520	298
1521	396
1522	501
1523	624
1524	639
1525	621
1526	537
1527	429
1528	382
1529	349
1530	307
1531	321
1532	331
1533	331
1534	358
1535	310
1536	362
1537	316
1538	288
1539	317
1540	340
1541	318
1542	325
1543	337
1544	372
1545	385
1546	385
1547	389
1548	400
1549	374
1550	418
1551	346
1552	355
1553	337
1554	286
1555	332
1556	291
1557	332
1558	329
1559	292
1560	345
1561	307
1562	325
1563	312
1564	326
1565	292
1566	326
1567	330
1568	336
1569	341
1570	307
1571	347
1572	460
1573	766
1574	1711
1575	3977
1576	7405
1577	10784
1578	11754
1579	9842
1580	6222
1581	2959
1582	1193
1583	556
1584	382
1585	345
1586	338
1587	305
1588	320
1589	303
1590	315
1591	284
1592	307
1593	307
1594	276
1595	293
1596	295
1597	307
1598	295
1599	339
1600	276
1601	320
1602	280
1603	297
1604	289
1605	300
1606	303
1607	294
1608	281
1609	319
1610	278
1611	302
1612	278
1613	280
1614	314
1615	295
1616	295
1617	289
1618	278
1619	253
1620	276
1621	298
1622	254
1623	259
1624	290
1625	306
1626	290
1627	287
1628	260
1629	251
1630	309
1631	303
1632	288
1633	297
1634	296
1635	299
1636	279
1637	241
1638	278
1639	305
1640	294
1641	300
1642	324
1643	453
1644	619
1645	680
1646	717
1647	595
1648	503
1649	363
1650	282
1651	302
1652	297
1653	307
1654	263
1655	268
1656	279
1657	302
1658	295
1659	275
1660	261
1661	290
1662	295
1663	291
1664	299
1665	302
1666	309
1667	253
1668	281
1669	241
1670	268
1671	288
1672	276
1673	311
1674	309
1675	311
1676	282
1677	271
1678	262
1679	262
1680	292
1681	268
1682	273
1683	270
1684	265
1685	295
1686	275
1687	250
1688	285
1689	265
1690	277
1691	291
1692	275
1693	303
1694	294
1695	285
1696	275
1697	307
1698	306
1699	280
1700	259
1701	291
1702	274
1703	263
1704	288
1705	261
1706	279
1707	288
1708	278
1709	292
1710	255
1711	249
1712	267
1713	258
1714	286
1715	272
1716	286
1717	268
1718	270
1719	280
1720	281
1721	309
1722	280
1723	246
1724	268
1725	285
1726	282
1727	288
1728	277
1729	283
1730	252
1731	286
1732	264
1733	219
1734	272
1735	286
1736	280
1737	268
1738	304
1739	307
1740	266
1741	276
1742	273
1743	271
1744	268
1745	248
1746	272
1747	252
1748	285
1749	293
1750	305
1751	300
1752	299
1753	264
1754	282
1755	301
1756	282
1757	290
1758	270
1759	271
1760	272
1761	268
1762	232
1763	287
1764	254
1765	256
1766	276
1767	274
1768	280
1769	259
1770	269
1771	268
1772	309
1773	282
1774	281
1775	289
1776	261
1777	255
1778	284
1779	270
1780	295
1781	282
1782	272
1783	271
1784	266
1785	247
1786	265
1787	271
1788	294
1789	298
1790	307
1791	298
1792	265
1793	299
1794	293
1795	254
1796	290
1797	289
1798	264
1799	282
1800	299
1801	275
1802	278
1803	276
1804	266
1805	259
1806	257
1807	283
1808	290
1809	270
1810	267
1811	253
1812	278
1813	305
1814	320
1815	315
1816	315
1817	278
1818	313
1819	313
1820	282
1821	290
1822	292
1823	285
1824	296
1825	294
1826	286
1827	266
1828	282
1829	295
1830	276
1831	271
1832	266
1833	281
1834	257
1835	260
1836	294
1837	284
1838	296
1839	252
1840	300
1841	268
1842	307
1843	261
1844	275
1845	303
1846	273
1847	274
1848	277
1849	340
1850	292
1851	313
1852	280
1853	331
1854	318
1855	285
1856	282
1857	267
1858	260
1859	257
1860	264
1861	266
1862	304
1863	284
1864	243
1865	275
1866	283
1867	306
1868	276
1869	279
1870	335
1871	266
1872	314
1873	284
1874	264
1875	284
1876	280
1877	306
1878	310
1879	283
1880	300
1881	312
1882	297
1883	329
1884	330
1885	355
1886	329
1887	334
1888	289
1889	283
1890	256
1891	282
1892	273
1893	279
1894	265
1895	314
1896	286
1897	311
1898	329
1899	304
1900	331
1901	320
1902	308
1903	273
1904	272
1905	255
1906	277
1907	273
1908	260
1909	294
1910	262
1911	258
1912	255
1913	241
1914	282
1915	242
1916	271
1917	278
1918	268
1919	250
1920	245
1921	215
1922	238
1923	227
1924	248
1925	256
1926	234
1927	244
1928	244
1929	257
1930	253
1931	257
1932	225
1933	260
1934	237
1935	241
1936	257
1937	272
1938	235
1939	263
1940	265
1941	220
1942	235
1943	277
1944	232
1945	252
1946	328
1947	557
1948	965
1949	1693
1950	2321
1951	2675
1952	2297
1953	1733
1954	1075
1955	540
1956	343
1957	263
1958	220
1959	256
1960	246
1961	241
1962	233
1963	236
1964	206
1965	228
1966	206
1967	223
1968	204
1969	216
1970	236
1971	210
1972	228
1973	208
1974	237
1975	216
1976	240
1977	223
1978	221
1979	213
1980	222
1981	239
1982	225
1983	205
1984	208
1985	221
1986	210
1987	223
1988	235
1989	252
1990	226
1991	212
1992	202
1993	230
1994	232
1995	222
1996	208
1997	222
1998	224
1999	238
2000	228
2001	226
2002	199
2003	215
2004	187
2005	230
2006	217
2007	231
2008	217
2009	215
2010	230
2011	211
2012	235
2013	237
2014	197
2015	230
2016	209
2017	218
2018	224
2019	212
2020	241
2021	365
2022	409
2023	517
2024	502
2025	424
2026	404
2027	256
2028	268
2029	257
2030	225
2031	199
2032	245
2033	209
2034	193
2035	194
2036	206
2037	202
2038	216
2039	215
2040	236
2041	218
2042	300
2043	352
2044	366
2045	393
2046	327
2047	297
2048	247
2049	210
2050	198
2051	217
2052	182
2053	215
2054	217
2055	212
2056	199
2057	229
2058	198
2059	207
2060	193
2061	185
2062	195
2063	195
2064	276
2065	368
2066	484
2067	610
2068	623
2069	521
2070	392
2071	288
2072	207
2073	192
2074	177
2075	175
2076	171
2077	153
2078	183
2079	182
2080	161
2081	167
2082	178
2083	173
2084	187
2085	134
2086	166
2087	150
2088	171
2089	145
2090	200
2091	238
2092	302
2093	315
2094	297
2095	254
2096	242
2097	223
2098	167
2099	263
2100	341
2101	418
2102	494
2103	417
2104	363
2105	255
2106	170
2107	148
2108	161
2109	165
2110	133
2111	161
2112	137
2113	153
2114	154
2115	158
2116	152
2117	172
2118	135
2119	155
2120	142
2121	182
2122	279
2123	419
2124	822
2125	1141
2126	1377
2127	1371
2128	1072
2129	637
2130	382
2131	206
2132	162
2133	151
2134	111
2135	138
2136	127
2137	124
2138	140
2139	120
2140	127
2141	137
2142	134
2143	154
2144	151
2145	140
2146	127
2147	144
2148	138
2149	122
2150	131
2151	132
2152	140
2153	127
2154	144
2155	133
2156	141
2157	160
2158	126
2159	129
2160	135
2161	129
2162	115
2163	122
2164	112
2165	133
2166	118
2167	135
2168	133
2169	121
2170	117
2171	137
2172	127
2173	121
2174	137
2175	126
2176	135
2177	144
2178	123
2179	121
2180	122
2181	139
2182	139
2183	126
2184	151
2185	131
2186	129
2187	126
2188	128
2189	123
2190	141
2191	108
2192	119
2193	128
2194	129
2195	117
2196	114
2197	116
2198	126
2199	130
2200	138
2201	140
2202	134
2203	150
2204	136
2205	141
2206	111
2207	122
2208	123
2209	125
2210	131
2211	111
2212	111
2213	124
2214	141
2215	150
2216	202
2217	233
2218	269
2219	280
2220	222
2221	198
2222	141
2223	133
2224	116
2225	122
2226	123
2227	141
2228	190
2229	299
2230	411
2231	584
2232	584
2233	528
2234	411
2235	268
2236	186
2237	118
2238	132
2239	136
2240	157
2241	175
2242	258
2243	345
2244	387
2245	355
2246	289
2247	200
2248	155
2249	131
2250	115
2251	115
2252	114
2253	104
2254	104
2255	87
2256	108
2257	104
2258	105
2259	123
2260	116
2261	94
2262	112
2263	113
2264	108
2265	99
2266	91
2267	116
2268	106
2269	88
2270	93
2271	91
2272	111
2273	105
2274	95
2275	97
2276	116
2277	105
2278	117
2279	104
2280	94
2281	96
2282	86
2283	103
2284	92
2285	102
2286	121
2287	104
2288	124
2289	110
2290	116
2291	152
2292	230
2293	407
2294	750
2295	1155
2296	1349
2297	1309
2298	1002
2299	609
2300	331
2301	185
2302	133
2303	119
2304	95
2305	93
2306	98
2307	99
2308	115
2309	90
2310	100
2311	98
2312	99
2313	98
2314	60
2315	99
2316	96
2317	85
2318	93
2319	102
2320	92
2321	105
2322	98
2323	111
2324	95
2325	83
2326	89
2327	90
2328	106
2329	90
2330	97
2331	127
2332	132
2333	104
2334	104
2335	116
2336	95
2337	100
2338	97
2339	97
2340	90
2341	90
2342	92
2343	105
2344	101
2345	93
2346	93
2347	77
2348	88
2349	81
2350	82
2351	99
2352	95
2353	99
2354	67
2355	88
2356	88
2357	85
2358	92
2359	93
2360	94
2361	85
2362	102
2363	98
2364	89
2365	85
2366	85
2367	79
2368	89
2369	80
2370	95
2371	78
2372	86
2373	83
2374	74
2375	95
2376	85
2377	116
2378	117
2379	142
2380	151
2381	168
2382	183
2383	163
2384	124
2385	110
2386	87
2387	85
2388	92
2389	100
2390	80
2391	70
2392	88
2393	88
2394	63
2395	69
2396	94
2397	104
2398	82
2399	73
2400	89
2401	90
2402	77
2403	84
2404	99
2405	98
2406	120
2407	194
2408	253
2409	255
2410	264
2411	222
2412	153
2413	124
2414	108
2415	98
2416	86
2417	94
2418	107
2419	90
2420	96
2421	163
2422	302
2423	709
2424	1590
2425	3292
2426	5505
2427	7055
2428	7081
2429	5674
2430	3686
2431	1875
2432	790
2433	278
2434	146
2435	79
2436	90
2437	96
2438	84
2439	88
2440	80
2441	63
2442	74
2443	69
2444	93
2445	73
2446	81
2447	90
2448	83
2449	69
2450	94
2451	70
2452	77
2453	74
2454	70
2455	61
2456	66
2457	70
2458	85
2459	69
2460	65
2461	67
2462	68
2463	60
2464	64
2465	55
2466	69
2467	79
2468	76
2469	90
2470	90
2471	68
2472	78
2473	68
2474	68
2475	67
2476	80
2477	74
2478	73
2479	65
2480	74
2481	79
2482	65
2483	70
2484	77
2485	76
2486	82
2487	93
2488	75
2489	73
2490	78
2491	63
2492	73
2493	67
2494	59
2495	56
2496	52
2497	53
2498	86
2499	62
2500	69
2501	73
2502	84
2503	75
2504	61
2505	74
2506	59
2507	58
2508	58
2509	76
2510	72
2511	74
2512	89
2513	85
2514	74
2515	89
2516	66
2517	77
2518	79
2519	65
2520	75
2521	93
2522	90
2523	72
2524	86
2525	79
2526	66
2527	74
2528	65
2529	76
2530	77
2531	76
2532	115
2533	129
2534	106
2535	100
2536	79
2537	84
2538	77
2539	53
2540	73
2541	64
2542	74
2543	76
2544	64
2545	73
2546	68
2547	91
2548	95
2549	122
2550	137
2551	134
2552	116
2553	110
2554	71
2555	72
2556	74
2557	52
2558	63
2559	75
2560	81
2561	132
2562	219
2563	385
2564	734
2565	1101
2566	1324
2567	1270
2568	1026
2569	633
2570	400
2571	254
2572	296
2573	598
2574	1377
2575	2449
2576	3566
2577	4202
2578	4024
2579	2928
2580	1841
2581	843
2582	323
2583	161
2584	78
2585	74
2586	72
2587	68
2588	63
2589	57
2590	58
2591	66
2592	72
2593	67
2594	76
2595	76
2596	68
2597	75
2598	58
2599	69
2600	68
2601	53
2602	60
2603	62
2604	70
2605	58
2606	54
2607	61
2608	54
2609	72
2610	75
2611	76
2612	77
2613	61
2614	58
2615	68
2616	54
2617	64
2618	64
2619	55
2620	69
2621	61
2622	60
2623	67
2624	72
2625	70
2626	73
2627	120
2628	87
2629	99
2630	56
2631	62
2632	65
2633	56
2634	55
2635	48
2636	59
2637	54
2638	47
2639	47
2640	41
2641	53
2642	47
2643	51
2644	60
2645	66
2646	59
2647	59
2648	45
2649	61
2650	48
2651	47
2652	65
2653	48
2654	63
2655	57
2656	51
2657	62
2658	58
2659	68
2660	64
2661	61
2662	86
2663	46
2664	52
2665	51
2666	54
2667	51
2668	68
2669	63
2670	58
2671	61
2672	67
2673	57
2674	47
2675	61
2676	41
2677	57
2678	48
2679	62
2680	41
2681	49
2682	70
2683	57
2684	48
2685	55
2686	61
2687	62
2688	58
2689	56
2690	52
2691	51
2692	57
2693	52
2694	48
2695	44
2696	58
2697	51
2698	61
2699	69
2700	58
2701	61
2702	63
2703	59
2704	63
2705	47
2706	60
2707	63
2708	63
2709	57
2710	42
2711	45
2712	52
2713	52
2714	38
2715	55
2716	40
2717	50
2718	53
2719	54
2720	52
2721	50
2722	48
2723	54
2724	44
2725	47
2726	53
2727	62
2728	39
2729	41
2730	56
2731	65
2732	51
2733	42
2734	51
2735	43
2736	46
2737	50
2738	59
2739	49
2740	55
2741	65
2742	82
2743	105
2744	78
2745	77
2746	82
2747	76
2748	69
2749	67
2750	47
2751	42
2752	52
2753	46
2754	44
2755	53
2756	54
2757	44
2758	47
2759	60
2760	58
2761	67
2762	65
2763	64
2764	77
2765	65
2766	56
2767	60
2768	51
2769	67
2770	44
2771	41
2772	49
2773	42
2774	59
2775	40
2776	54
2777	57
2778	52
2779	54
2780	59
2781	49
2782	38
2783	50
2784	40
2785	50
2786	59
2787	56
2788	58
2789	44
2790	47
2791	45
2792	59
2793	66
2794	43
2795	52
2796	53
2797	57
2798	64
2799	66
2800	55
2801	52
2802	40
2803	49
2804	36
2805	49
2806	52
2807	63
2808	56
2809	42
2810	56
2811	49
2812	61
2813	45
2814	46
2815	53
2816	48
2817	56
2818	59
2819	73
2820	67
2821	75
2822	63
2823	75
2824	86
2825	95
2826	101
2827	132
2828	95
2829	69
2830	57
2831	62
2832	50
2833	53
2834	53
2835	56
2836	53
2837	57
2838	59
2839	56
2840	33
2841	67
2842	43
2843	42
2844	57
2845	33
2846	53
2847	51
2848	45
2849	47
2850	54
2851	56
2852	58
2853	56
2854	54
2855	57
2856	67
2857	59
2858	87
2859	114
2860	145
2861	156
2862	149
2863	149
2864	110
2865	90
2866	75
2867	48
2868	43
2869	42
2870	53
2871	33
2872	43
2873	50
2874	38
2875	50
2876	48
2877	58
2878	53
2879	48
2880	40
2881	59
2882	53
2883	31
2884	48
2885	44
2886	44
2887	44
2888	40
2889	46
2890	52
2891	55
2892	41
2893	40
2894	49
2895	48
2896	49
2897	64
2898	77
2899	94
2900	122
2901	127
2902	138
2903	127
2904	104
2905	89
2906	93
2907	76
2908	57
2909	63
2910	42
2911	50
2912	47
2913	43
2914	57
2915	58
2916	45
2917	52
2918	43
2919	52
2920	50
2921	56
2922	51
2923	43
2924	52
2925	44
2926	58
2927	56
2928	59
2929	50
2930	57
2931	47
2932	56
2933	48
2934	41
2935	36
2936	47
2937	53
2938	52
2939	46
2940	79
2941	84
2942	110
2943	114
2944	154
2945	136
2946	106
2947	82
2948	47
2949	51
2950	60
2951	46
2952	50
2953	58
2954	51
2955	65
2956	50
2957	51
2958	45
2959	48
2960	42
2961	53
2962	60
2963	53
2964	45
2965	71
2966	83
2967	102
2968	116
2969	138
2970	158
2971	116
2972	95
2973	86
2974	74
2975	68
2976	67
2977	65
2978	74
2979	70
2980	49
2981	53
2982	43
2983	56
2984	42
2985	43
2986	50
2987	47
2988	64
2989	54
2990	53
2991	50
2992	57
2993	37
2994	47
2995	42
2996	46
2997	54
2998	41
2999	51
3000	52
3001	51
3002	51
3003	33
3004	52
3005	42
3006	60
3007	44
3008	45
3009	58
3010	46
3011	46
3012	47
3013	42
3014	36
3015	36
3016	40
3017	44
3018	53
3019	32
3020	48
3021	52
3022	48
3023	39
3024	43
3025	44
3026	45
3027	55
3028	47
3029	46
3030	54
3031	48
3032	50
3033	48
3034	42
3035	42
3036	47
3037	50
3038	47
3039	53
3040	46
3041	61
3042	49
3043	44
3044	61
3045	43
3046	58
3047	43
3048	41
3049	45
3050	44
3051	62
3052	59
3053	71
3054	53
3055	78
3056	85
3057	76
3058	70
3059	59
3060	70
3061	60
3062	43
3063	40
3064	56
3065	37
3066	52
3067	42
3068	41
3069	40
3070	48
3071	49
3072	38
3073	49
3074	47
3075	42
3076	40
3077	45
3078	45
3079	49
3080	40
3081	49
3082	50
3083	63
3084	72
3085	50
3086	44
3087	56
3088	58
3089	47
3090	47
3091	51
3092	61
3093	55
3094	63
3095	50
3096	44
3097	48
3098	43
3099	46
3100	50
3101	58
3102	41
3103	56
3104	42
3105	54
3106	42
3107	47
3108	41
3109	49
3110	56
3111	44
3112	38
3113	51
3114	42
3115	49
3116	51
3117	52
3118	56
3119	41
3120	39
3121	50
3122	46
3123	36
3124	46
3125	52
3126	43
3127	45
3128	53
3129	38
3130	50
3131	47
3132	40
3133	43
3134	50
3135	44
3136	52
3137	35
3138	59
3139	52
3140	42
3141	47
3142	46
3143	42
3144	37
3145	54
3146	29
3147	48
3148	46
3149	47
3150	51
3151	41
3152	61
3153	40
3154	65
3155	39
3156	53
3157	41
3158	48
3159	29
3160	49
3161	51
3162	42
3163	42
3164	45
3165	40
3166	36
3167	46
3168	33
3169	33
3170	32
3171	46
3172	40
3173	49
3174	49
3175	34
3176	47
3177	55
3178	55
3179	37
3180	39
3181	42
3182	48
3183	34
3184	41
3185	38
3186	46
3187	43
3188	57
3189	47
3190	52
3191	49
3192	48
3193	45
3194	56
3195	54
3196	49
3197	50
3198	52
3199	58
3200	36
3201	38
3202	54
3203	45
3204	51
3205	60
3206	55
3207	42
3208	37
3209	45
3210	39
3211	49
3212	41
3213	51
3214	55
3215	41
3216	48
3217	52
3218	51
3219	65
3220	45
3221	52
3222	44
3223	53
3224	44
3225	49
3226	42
3227	42
3228	50
3229	42
3230	50
3231	43
3232	52
3233	56
3234	33
3235	35
3236	42
3237	36
3238	54
3239	42
3240	49
3241	33
3242	48
3243	57
3244	38
3245	43
3246	54
3247	56
3248	49
3249	41
3250	51
3251	40
3252	60
3253	46
3254	46
3255	43
3256	42
3257	53
3258	42
3259	41
3260	49
3261	48
3262	37
3263	53
3264	47
3265	50
3266	57
3267	51
3268	43
3269	65
3270	60
3271	58
3272	62
3273	74
3274	84
3275	74
3276	64
3277	66
3278	63
3279	62
3280	56
3281	57
3282	44
3283	49
3284	53
3285	57
3286	43
3287	44
3288	55
3289	58
3290	61
3291	61
3292	69
3293	86
3294	96
3295	114
3296	117
3297	133
3298	141
3299	126
3300	94
3301	67
3302	58
3303	62
3304	62
3305	57
3306	57
3307	49
3308	63
3309	50
3310	52
3311	57
3312	47
3313	43
3314	47
3315	54
3316	58
3317	45
3318	38
3319	39
3320	49
3321	51
3322	42
3323	38
3324	42
3325	59
3326	42
3327	52
3328	58
3329	52
3330	53
3331	54
3332	52
3333	49
3334	56
3335	46
3336	59
3337	54
3338	45
3339	42
3340	57
3341	58
3342	56
3343	53
3344	52
3345	50
3346	46
3347	43
3348	51
3349	35
3350	60
3351	57
3352	52
3353	31
3354	60
3355	59
3356	35
3357	57
3358	42
3359	42
3360	57
3361	45
3362	45
3363	49
3364	37
3365	49
3366	50
3367	50
3368	44
3369	47
3370	43
3371	47
3372	50
3373	53
3374	38
3375	42
3376	54
3377	51
3378	48
3379	38
3380	44
3381	51
3382	68
3383	61
3384	50
3385	62
3386	51
3387	49
3388	55
3389	64
3390	52
3391	41
3392	45
3393	62
3394	66
3395	58
3396	60
3397	51
3398	63
3399	56
3400	54
3401	67
3402	65
3403	68
3404	56
3405	53
3406	59
3407	53
3408	49
3409	57
3410	46
3411	49
3412	52
3413	49
3414	41
3415	46
3416	49
3417	57
3418	55
3419	52
3420	48
3421	40
3422	37
3423	55
3424	49
3425	47
3426	44
3427	39
3428	55
3429	48
3430	41
3431	41
3432	45
3433	45
3434	58
3435	35
3436	50
3437	42
3438	55
3439	29
3440	46
3441	50
3442	46
3443	47
3444	57
3445	45
3446	43
3447	57
3448	36
3449	47
3450	45
3451	43
3452	41
3453	54
3454	44
3455	54
3456	48
3457	62
3458	52
3459	49
3460	50
3461	38
3462	47
3463	56
3464	39
3465	50
3466	60
3467	50
3468	48
3469	45
3470	53
3471	43
3472	37
3473	47
3474	48
3475	50
3476	46
3477	48
3478	47
3479	35
3480	44
3481	44
3482	46
3483	45
3484	33
3485	31
3486	43
3487	41
3488	50
3489	43
3490	39
3491	57
3492	36
3493	36
3494	60
3495	45
3496	55
3497	49
3498	51
3499	39
3500	45
3501	54
3502	52
3503	40
3504	41
3505	57
3506	45
3507	50
3508	42
3509	54
3510	51
3511	56
3512	38
3513	31
3514	55
3515	46
3516	36
3517	42
3518	51
3519	50
3520	45
3521	44
3522	46
3523	42
3524	54
3525	54
3526	52
3527	52
3528	45
3529	62
3530	54
3531	61
3532	44
3533	53
3534	60
3535	45
3536	52
3537	48
3538	42
3539	41
3540	48
3541	49
3542	43
3543	50
3544	62
3545	65
3546	29
3547	49
3548	50
3549	45
3550	52
3551	44
3552	56
3553	52
3554	41
3555	54
3556	60
3557	57
3558	57
3559	50
3560	49
3561	40
3562	64
3563	52
3564	45
3565	49
3566	42
3567	52
3568	39
3569	49
3570	43
3571	52
3572	51
3573	48
3574	55
3575	48
3576	47
3577	57
3578	49
3579	45
3580	47
3581	47
3582	47
3583	41
3584	53
3585	44
3586	47
3587	52
3588	51
3589	45
3590	42
3591	46
3592	57
3593	57
3594	41
3595	38
3596	55
3597	62
3598	61
3599	52
3600	45
3601	44
3602	55
3603	48
3604	46
3605	52
3606	41
3607	54
3608	50
3609	48
3610	54
3611	37
3612	69
3613	48
3614	42
3615	47
3616	60
3617	59
3618	51
3619	51
3620	48
3621	40
3622	46
3623	53
3624	51
3625	58
3626	75
3627	61
3628	76
3629	56
3630	48
3631	59
3632	50
3633	49
3634	46
3635	63
3636	63
3637	71
3638	55
3639	65
3640	63
3641	48
3642	53
3643	41
3644	52
3645	40
3646	42
3647	49
3648	31
3649	48
3650	43
3651	33
3652	45
3653	37
3654	36
3655	51
3656	52
3657	66
3658	54
3659	44
3660	52
3661	43
3662	46
3663	43
3664	34
3665	44
3666	48
3667	53
3668	54
3669	49
3670	51
3671	32
3672	36
3673	50
3674	52
3675	35
3676	40
3677	28
3678	50
3679	39
3680	61
3681	53
3682	37
3683	49
3684	40
3685	45
3686	41
3687	44
3688	50
3689	41
3690	49
3691	48
3692	43
3693	38
3694	36
3695	49
3696	44
3697	59
3698	54
3699	56
3700	57
3701	59
3702	43
3703	41
3704	53
3705	52
3706	38
3707	48
3708	40
3709	35
3710	46
3711	47
3712	64
3713	43
3714	71
3715	56
3716	49
3717	44
3718	50
3719	37
3720	46
3721	28
3722	32
3723	32
3724	42
3725	31
3726	37
3727	51
3728	34
3729	38
3730	47
3731	41
3732	43
3733	35
3734	38
3735	56
3736	48
3737	47
3738	37
3739	31
3740	47
3741	46
3742	53
3743	35
3744	29
3745	22
3746	41
3747	38
3748	32
3749	33
3750	31
3751	43
3752	37
3753	37
3754	46
3755	26
3756	42
3757	34
3758	29
3759	34
3760	29
3761	44
3762	28
3763	43
3764	48
3765	45
3766	37
3767	32
3768	39
3769	35
3770	42
3771	45
3772	31
3773	43
3774	42
3775	55
3776	48
3777	53
3778	46
3779	46
3780	54
3781	45
3782	49
3783	43
3784	32
3785	51
3786	35
3787	44
3788	41
3789	42
3790	37
3791	37
3792	36
3793	37
3794	48
3795	35
3796	29
3797	52
3798	41
3799	47
3800	39
3801	34
3802	45
3803	25
3804	38
3805	30
3806	39
3807	48
3808	44
3809	29
3810	44
3811	32
3812	30
3813	39
3814	39
3815	27
3816	35
3817	37
3818	30
3819	47
3820	40
3821	28
3822	33
3823	36
3824	35
3825	39
3826	34
3827	33
3828	30
3829	43
3830	26
3831	40
3832	24
3833	39
3834	46
3835	32
3836	41
3837	42
3838	38
3839	34
3840	42
3841	38
3842	47
3843	63
3844	95
3845	119
3846	137
3847	176
3848	160
3849	144
3850	128
3851	98
3852	77
3853	73
3854	45
3855	37
3856	34
3857	36
3858	30
3859	33
3860	41
3861	33
3862	31
3863	33
3864	32
3865	35
3866	33
3867	34
3868	45
3869	35
3870	43
3871	45
3872	27
3873	30
3874	39
3875	44
3876	39
3877	40
3878	36
3879	47
3880	31
3881	39
3882	37
3883	29
3884	39
3885	44
3886	31
3887	41
3888	24
3889	37
3890	41
3891	35
3892	32
3893	36
3894	36
3895	35
3896	24
3897	32
3898	31
3899	38
3900	28
3901	26
3902	45
3903	37
3904	24
3905	27
3906	38
3907	36
3908	37
3909	25
3910	32
3911	29
3912	32
3913	26
3914	32
3915	29
3916	36
3917	31
3918	33
3919	34
3920	35
3921	46
3922	23
3923	32
3924	35
3925	36
3926	26
3927	22
3928	27
3929	26
3930	35
3931	33
3932	27
3933	23
3934	38
3935	32
3936	30
3937	45
3938	40
3939	61
3940	113
3941	138
3942	166
3943	172
3944	186
3945	132
3946	94
3947	56
3948	35
3949	30
3950	45
3951	35
3952	43
3953	45
3954	51
3955	73
3956	118
3957	95
3958	114
3959	94
3960	86
3961	51
3962	39
3963	37
3964	23
3965	38
3966	33
3967	28
3968	33
3969	23
3970	32
3971	31
3972	28
3973	25
3974	35
3975	36
3976	32
3977	55
3978	39
3979	39
3980	42
3981	31
3982	44
3983	61
3984	79
3985	96
3986	86
3987	88
3988	77
3989	69
3990	53
3991	44
3992	33
3993	27
3994	19
3995	37
3996	17
3997	41
3998	29
3999	34
4000	22
4001	25
4002	19
4003	29
4004	37
4005	32
4006	31
4007	22
4008	29
4009	31
4010	36
4011	24
4012	34
4013	25
4014	26
4015	32
4016	38
4017	18
4018	34
4019	34
4020	27
4021	33
4022	26
4023	35
4024	26
4025	33
4026	29
4027	35
4028	28
4029	49
4030	40
4031	36
4032	41
4033	36
4034	28
4035	39
4036	29
4037	30
4038	38
4039	32
4040	24
4041	24
4042	25
4043	34
4044	29
4045	34
4046	24
4047	41
4048	35
4049	32
4050	42
4051	35
4052	35
4053	45
4054	38
4055	37
4056	29
4057	26
4058	37
4059	37
4060	30
4061	29
4062	24
4063	40
4064	27
4065	38
4066	35
4067	31
4068	38
4069	34
4070	25
4071	28
4072	24
4073	33
4074	27
4075	29
4076	35
4077	30
4078	40
4079	32
4080	26
4081	32
4082	17
4083	22
4084	29
4085	26
4086	37
4087	24
4088	21
4089	22
4090	26
4091	38
4092	23
4093	29
4094	30
4095	16
4096	31
4097	38
4098	36
4099	41
4100	58
4101	55
4102	67
4103	50
4104	28
4105	32
4106	24
4107	38
4108	23
4109	30
4110	28
4111	31
4112	29
4113	24
4114	32
4115	32
4116	32
4117	29
4118	31
4119	32
4120	24
4121	34
4122	28
4123	27
4124	26
4125	32
4126	30
4127	34
4128	34
4129	29
4130	33
4131	26
4132	26
4133	28
4134	21
4135	26
4136	29
4137	22
4138	28
4139	31
4140	31
4141	26
4142	31
4143	35
4144	31
4145	28
4146	33
4147	25
4148	33
4149	33
4150	32
4151	36
4152	27
4153	23
4154	33
4155	25
4156	38
4157	46
4158	54
4159	61
4160	95
4161	108
4162	112
4163	126
4164	97
4165	82
4166	64
4167	36
4168	38
4169	36
4170	39
4171	31
4172	32
4173	27
4174	29
4175	51
4176	54
4177	104
4178	140
4179	294
4180	413
4181	514
4182	561
4183	537
4184	381
4185	253
4186	151
4187	85
4188	68
4189	79
4190	175
4191	220
4192	281
4193	308
4194	290
4195	245
4196	176
4197	106
4198	79
4199	42
4200	55
4201	39
4202	32
4203	26
4204	29
4205	27
4206	32
4207	27
4208	27
4209	32
4210	21
4211	35
4212	34
4213	46
4214	30
4215	26
4216	32
4217	36
4218	29
4219	26
4220	28
4221	36
4222	24
4223	36
4224	29
4225	41
4226	33
4227	22
4228	21
4229	39
4230	29
4231	32
4232	43
4233	31
4234	45
4235	35
4236	37
4237	38
4238	31
4239	37
4240	36
4241	31
4242	25
4243	25
4244	31
4245	29
4246	48
4247	33
4248	40
4249	30
4250	35
4251	30
4252	28
4253	33
4254	27
4255	27
4256	24
4257	33
4258	42
4259	25
4260	34
4261	43
4262	66
4263	137
4264	214
4265	265
4266	252
4267	285
4268	258
4269	172
4270	91
4271	61
4272	50
4273	46
4274	29
4275	50
4276	75
4277	86
4278	67
4279	63
4280	51
4281	41
4282	41
4283	35
4284	33
4285	36
4286	44
4287	63
4288	106
4289	134
4290	237
4291	269
4292	311
4293	258
4294	212
4295	128
4296	101
4297	65
4298	40
4299	49
4300	36
4301	28
4302	24
4303	23
4304	29
4305	29
4306	28
4307	56
4308	52
4309	80
4310	83
4311	85
4312	142
4313	92
4314	75
4315	51
4316	52
4317	41
4318	36
4319	36
4320	32
4321	40
4322	29
4323	27
4324	22
4325	28
4326	25
4327	25
4328	33
4329	34
4330	29
4331	24
4332	20
4333	34
4334	32
4335	32
4336	24
4337	29
4338	29
4339	24
4340	21
4341	24
4342	29
4343	28
4344	40
4345	34
4346	36
4347	26
4348	32
4349	34
4350	30
4351	30
4352	27
4353	26
4354	33
4355	36
4356	34
4357	33
4358	33
4359	23
4360	21
4361	30
4362	22
4363	25
4364	30
4365	29
4366	23
4367	32
4368	25
4369	39
4370	33
4371	33
4372	38
4373	26
4374	32
4375	34
4376	36
4377	39
4378	36
4379	30
4380	26
4381	25
4382	44
4383	55
4384	53
4385	58
4386	72
4387	49
4388	43
4389	38
4390	29
4391	24
4392	46
4393	36
4394	35
4395	33
4396	36
4397	37
4398	30
4399	23
4400	28
4401	26
4402	24
4403	24
4404	41
4405	26
4406	28
4407	31
4408	26
4409	33
4410	21
4411	39
4412	46
4413	40
4414	41
4415	37
4416	34
4417	44
4418	48
4419	34
4420	35
4421	40
4422	30
4423	27
4424	28
4425	34
4426	22
4427	20
4428	26
4429	28
4430	39
4431	48
4432	43
4433	42
4434	38
4435	50
4436	44
4437	37
4438	34
4439	38
4440	31
4441	33
4442	30
4443	33
4444	22
4445	29
4446	34
4447	36
4448	21
4449	32
4450	34
4451	32
4452	35
4453	26
4454	30
4455	24
4456	30
4457	21
4458	27
4459	34
4460	20
4461	31
4462	32
4463	36
4464	39
4465	21
4466	27
4467	27
4468	29
4469	33
4470	28
4471	39
4472	27
4473	27
4474	33
4475	40
4476	32
4477	33
4478	42
4479	37
4480	45
4481	47
4482	28
4483	37
4484	28
4485	32
4486	34
4487	27
4488	29
4489	33
4490	25
4491	24
4492	32
4493	24
4494	25
4495	27
4496	28
4497	24
4498	24
4499	34
4500	28
4501	24
4502	27
4503	27
4504	28
4505	39
4506	31
4507	29
4508	25
4509	27
4510	24
4511	33
4512	31
4513	32
4514	24
4515	23
4516	27
4517	30
4518	25
4519	31
4520	28
4521	21
4522	34
4523	31
4524	26
4525	36
4526	39
4527	34
4528	33
4529	25
4530	33
4531	30
4532	33
4533	30
4534	32
4535	29
4536	28
4537	30
4538	28
4539	18
4540	29
4541	38
4542	24
4543	35
4544	37
4545	32
4546	36
4547	40
4548	53
4549	53
4550	44
4551	35
4552	29
4553	23
4554	17
4555	36
4556	27
4557	35
4558	34
4559	30
4560	16
4561	33
4562	28
4563	16
4564	27
4565	24
4566	26
4567	28
4568	27
4569	27
4570	43
4571	31
4572	31
4573	36
4574	26
4575	35
4576	20
4577	34
4578	31
4579	33
4580	21
4581	30
4582	27
4583	43
4584	37
4585	24
4586	26
4587	34
4588	33
4589	34
4590	30
4591	29
4592	34
4593	21
4594	22
4595	36
4596	20
4597	22
4598	37
4599	35
4600	39
4601	20
4602	25
4603	26
4604	35
4605	32
4606	30
4607	32
4608	20
4609	22
4610	28
4611	39
4612	35
4613	35
4614	25
4615	38
4616	27
4617	25
4618	27
4619	29
4620	42
4621	33
4622	30
4623	32
4624	24
4625	44
4626	24
4627	32
4628	33
4629	31
4630	23
4631	24
4632	34
4633	36
4634	47
4635	43
4636	78
4637	93
4638	99
4639	105
4640	88
4641	78
4642	60
4643	53
4644	42
4645	30
4646	26
4647	32
4648	26
4649	27
4650	31
4651	41
4652	26
4653	27
4654	33
4655	35
4656	26
4657	33
4658	28
4659	24
4660	18
4661	35
4662	34
4663	28
4664	22
4665	32
4666	25
4667	40
4668	31
4669	30
4670	26
4671	25
4672	25
4673	33
4674	40
4675	37
4676	33
4677	33
4678	36
4679	27
4680	23
4681	33
4682	30
4683	29
4684	26
4685	34
4686	30
4687	29
4688	38
4689	39
4690	31
4691	35
4692	35
4693	36
4694	44
4695	24
4696	25
4697	40
4698	31
4699	28
4700	31
4701	32
4702	21
4703	30
4704	38
4705	31
4706	27
4707	30
4708	28
4709	24
4710	29
4711	26
4712	25
4713	28
4714	31
4715	37
4716	34
4717	44
4718	23
4719	33
4720	36
4721	35
4722	42
4723	28
4724	29
4725	30
4726	43
4727	34
4728	31
4729	36
4730	30
4731	29
4732	40
4733	25
4734	28
4735	23
4736	31
4737	26
4738	31
4739	30
4740	32
4741	35
4742	41
4743	46
4744	46
4745	42
4746	46
4747	46
4748	51
4749	49
4750	35
4751	30
4752	29
4753	25
4754	31
4755	27
4756	35
4757	29
4758	17
4759	43
4760	32
4761	26
4762	26
4763	34
4764	39
4765	34
4766	27
4767	26
4768	30
4769	26
4770	29
4771	30
4772	25
4773	25
4774	29
4775	16
4776	34
4777	18
4778	29
4779	27
4780	25
4781	29
4782	35
4783	35
4784	35
4785	41
4786	37
4787	22
4788	28
4789	39
4790	34
4791	30
4792	34
4793	26
4794	35
4795	28
4796	31
4797	30
4798	29
4799	30
4800	40
4801	38
4802	31
4803	38
4804	27
4805	29
4806	33
4807	22
4808	29
4809	36
4810	36
4811	30
4812	25
4813	22
4814	34
4815	37
4816	27
4817	22
4818	24
4819	32
4820	33
4821	37
4822	34
4823	37
4824	32
4825	29
4826	44
4827	45
4828	38
4829	25
4830	35
4831	30
4832	35
4833	21
4834	22
4835	35
4836	38
4837	42
4838	36
4839	39
4840	33
4841	39
4842	22
4843	40
4844	24
4845	41
4846	33
4847	38
4848	31
4849	30
4850	26
4851	32
4852	38
4853	34
4854	37
4855	45
4856	43
4857	30
4858	32
4859	41
4860	37
4861	28
4862	30
4863	37
4864	34
4865	31
4866	27
4867	37
4868	36
4869	32
4870	25
4871	40
4872	25
4873	35
4874	34
4875	28
4876	26
4877	26
4878	33
4879	36
4880	24
4881	33
4882	29
4883	25
4884	31
4885	32
4886	47
4887	23
4888	35
4889	41
4890	28
4891	44
4892	33
4893	19
4894	35
4895	31
4896	33
4897	38
4898	23
4899	33
4900	31
4901	30
4902	34
4903	23
4904	21
4905	40
4906	30
4907	43
4908	34
4909	39
4910	37
4911	31
4912	38
4913	42
4914	23
4915	29
4916	37
4917	29
4918	35
4919	31
4920	33
4921	30
4922	33
4923	26
4924	32
4925	40
4926	32
4927	32
4928	31
4929	38
4930	30
4931	33
4932	17
4933	36
4934	37
4935	29
4936	27
4937	50
4938	41
4939	40
4940	27
4941	30
4942	28
4943	27
4944	39
4945	47
4946	36
4947	31
4948	35
4949	35
4950	28
4951	37
4952	34
4953	34
4954	41
4955	48
4956	55
4957	45
4958	53
4959	46
4960	50
4961	46
4962	40
4963	32
4964	34
4965	24
4966	32
4967	33
4968	30
4969	32
4970	39
4971	38
4972	34
4973	31
4974	39
4975	24
4976	26
4977	29
4978	27
4979	24
4980	34
4981	21
4982	30
4983	23
4984	29
4985	36
4986	32
4987	33
4988	34
4989	41
4990	31
4991	41
4992	20
4993	25
4994	37
4995	25
4996	33
4997	38
4998	30
4999	31
5000	36
5001	30
5002	47
5003	33
5004	33
5005	25
5006	29
5007	32
5008	30
5009	27
5010	37
5011	22
5012	38
5013	30
5014	44
5015	41
5016	28
5017	36
5018	40
5019	34
5020	30
5021	38
5022	32
5023	29
5024	36
5025	30
5026	49
5027	48
5028	27
5029	36
5030	43
5031	34
5032	26
5033	29
5034	44
5035	30
5036	32
5037	32
5038	30
5039	33
5040	43
5041	45
5042	28
5043	36
5044	32
5045	27
5046	36
5047	34
5048	43
5049	34
5050	23
5051	40
5052	31
5053	27
5054	37
5055	31
5056	33
5057	34
5058	36
5059	37
5060	38
5061	39
5062	35
5063	28
5064	38
5065	29
5066	44
5067	36
5068	38
5069	33
5070	24
5071	30
5072	29
5073	43
5074	33
5075	25
5076	28
5077	33
5078	35
5079	36
5080	35
5081	29
5082	33
5083	35
5084	38
5085	34
5086	34
5087	31
5088	33
5089	33
5090	43
5091	36
5092	40
5093	33
5094	27
5095	28
5096	29
5097	28
5098	27
5099	26
5100	30
5101	30
5102	30
5103	30
5104	25
5105	34
5106	36
5107	46
5108	25
5109	30
5110	41
5111	37
5112	44
5113	29
5114	46
5115	29
5116	36
5117	42
5118	28
5119	26
5120	35
5121	32
5122	28
5123	46
5124	40
5125	39
5126	39
5127	30
5128	40
5129	40
5130	29
5131	34
5132	25
5133	30
5134	24
5135	39
5136	27
5137	19
5138	34
5139	42
5140	33
5141	42
5142	26
5143	24
5144	35
5145	35
5146	24
5147	31
5148	34
5149	30
5150	33
5151	21
5152	39
5153	35
5154	31
5155	28
5156	36
5157	31
5158	37
5159	34
5160	39
5161	29
5162	44
5163	31
5164	32
5165	31
5166	41
5167	30
5168	30
5169	34
5170	35
5171	47
5172	28
5173	42
5174	38
5175	50
5176	37
5177	30
5178	30
5179	19
5180	28
5181	37
5182	36
5183	30
5184	30
5185	25
5186	34
5187	27
5188	38
5189	34
5190	26
5191	30
5192	25
5193	39
5194	29
5195	39
5196	40
5197	38
5198	25
5199	37
5200	35
5201	34
5202	31
5203	31
5204	38
5205	32
5206	25
5207	26
5208	27
5209	31
5210	31
5211	35
5212	36
5213	33
5214	34
5215	42
5216	31
5217	29
5218	39
5219	33
5220	32
5221	35
5222	30
5223	31
5224	37
5225	31
5226	39
5227	35
5228	24
5229	41
5230	30
5231	30
5232	42
5233	35
5234	39
5235	37
5236	28
5237	35
5238	37
5239	44
5240	33
5241	30
5242	39
5243	41
5244	31
5245	31
5246	33
5247	37
5248	30
5249	24
5250	29
5251	39
5252	27
5253	31
5254	39
5255	32
5256	30
5257	31
5258	27
5259	29
5260	36
5261	42
5262	35
5263	33
5264	42
5265	20
5266	30
5267	32
5268	28
5269	25
5270	24
5271	34
5272	28
5273	32
5274	27
5275	36
5276	22
5277	29
5278	30
5279	38
5280	34
5281	27
5282	31
5283	28
5284	37
5285	32
5286	38
5287	41
5288	34
5289	29
5290	35
5291	41
5292	31
5293	25
5294	32
5295	26
5296	33
5297	26
5298	30
5299	41
5300	36
5301	37
5302	30
5303	18
5304	29
5305	43
5306	37
5307	30
5308	39
5309	32
5310	30
5311	38
5312	30
5313	36
5314	34
5315	40
5316	36
5317	26
5318	32
5319	29
5320	29
5321	38
5322	41
5323	37
5324	28
5325	29
5326	29
5327	29
5328	26
5329	42
5330	27
5331	35
5332	25
5333	31
5334	35
5335	41
5336	38
5337	34
5338	32
5339	38
5340	38
5341	33
5342	35
5343	34
5344	31
5345	33
5346	27
5347	30
5348	34
5349	30
5350	40
5351	29
5352	37
5353	41
5354	29
5355	26
5356	31
5357	45
5358	40
5359	36
5360	43
5361	22
5362	38
5363	35
5364	28
5365	29
5366	33
5367	31
5368	28
5369	24
5370	39
5371	30
5372	29
5373	30
5374	33
5375	24
5376	36
5377	36
5378	33
5379	23
5380	37
5381	26
5382	31
5383	30
5384	46
5385	24
5386	25
5387	32
5388	44
5389	33
5390	40
5391	34
5392	46
5393	41
5394	34
5395	37
5396	34
5397	39
5398	25
5399	36
5400	31
5401	39
5402	42
5403	36
5404	26
5405	31
5406	30
5407	27
5408	30
5409	42
5410	32
5411	44
5412	33
5413	41
5414	29
5415	32
5416	36
5417	32
5418	35
5419	34
5420	30
5421	32
5422	25
5423	32
5424	32
5425	36
5426	43
5427	35
5428	30
5429	32
5430	35
5431	36
5432	35
5433	23
5434	32
5435	42
5436	31
5437	30
5438	19
5439	39
5440	42
5441	44
5442	44
5443	24
5444	32
5445	32
5446	25
5447	25
5448	40
5449	33
5450	42
5451	40
5452	29
5453	28
5454	38
5455	30
5456	33
5457	38
5458	31
5459	39
5460	22
5461	31
5462	28
5463	35
5464	41
5465	34
5466	34
5467	30
5468	30
5469	37
5470	42
5471	41
5472	43
5473	25
5474	36
5475	28
5476	29
5477	44
5478	31
5479	38
5480	33
5481	35
5482	28
5483	40
5484	33
5485	34
5486	28
5487	33
5488	34
5489	30
5490	52
5491	35
5492	33
5493	31
5494	35
5495	32
5496	34
5497	30
5498	34
5499	31
5500	24
5501	30
5502	37
5503	30
5504	30
5505	46
5506	41
5507	45
5508	48
5509	57
5510	63
5511	98
5512	144
5513	195
5514	251
5515	323
5516	314
5517	343
5518	371
5519	356
5520	266
5521	236
5522	174
5523	151
5524	109
5525	68
5526	61
5527	49
5528	59
5529	53
5530	46
5531	43
5532	46
5533	37
5534	41
5535	38
5536	33
5537	39
5538	31
5539	45
5540	31
5541	32
5542	45
5543	41
5544	39
5545	32
5546	38
5547	32
5548	34
5549	43
5550	29
5551	35
5552	27
5553	35
5554	44
5555	34
5556	38
5557	38
5558	42
5559	40
5560	40
5561	41
5562	49
5563	43
5564	31
5565	33
5566	46
5567	32
5568	48
5569	37
5570	48
5571	35
5572	45
5573	33
5574	48
5575	33
5576	52
5577	36
5578	52
5579	31
5580	36
5581	43
5582	41
5583	37
5584	36
5585	30
5586	45
5587	35
5588	32
5589	35
5590	35
5591	43
5592	38
5593	43
5594	37
5595	38
5596	41
5597	44
5598	45
5599	32
5600	26
5601	39
5602	37
5603	54
5604	46
5605	48
5606	47
5607	37
5608	34
5609	24
5610	36
5611	49
5612	42
5613	37
5614	42
5615	46
5616	37
5617	27
5618	41
5619	34
5620	20
5621	33
5622	48
5623	40
5624	45
5625	35
5626	41
5627	37
5628	42
5629	40
5630	35
5631	41
5632	36
5633	28
5634	31
5635	39
5636	42
5637	41
5638	34
5639	41
5640	41
5641	29
5642	35
5643	32
5644	43
5645	58
5646	33
5647	46
5648	44
5649	42
5650	31
5651	38
5652	37
5653	56
5654	36
5655	44
5656	35
5657	40
5658	48
5659	41
5660	35
5661	44
5662	39
5663	54
5664	39
5665	50
5666	35
5667	37
5668	37
5669	46
5670	37
5671	28
5672	33
5673	35
5674	41
5675	45
5676	46
5677	37
5678	33
5679	40
5680	26
5681	29
5682	28
5683	45
5684	44
5685	47
5686	29
5687	44
5688	26
5689	37
5690	35
5691	51
5692	43
5693	47
5694	46
5695	41
5696	42
5697	47
5698	39
5699	49
5700	52
5701	34
5702	33
5703	36
5704	45
5705	56
5706	47
5707	34
5708	43
5709	45
5710	50
5711	30
5712	38
5713	38
5714	46
5715	38
5716	50
5717	37
5718	50
5719	41
5720	30
5721	31
5722	40
5723	42
5724	50
5725	37
5726	48
5727	42
5728	39
5729	36
5730	41
5731	44
5732	34
5733	22
5734	42
5735	49
5736	41
5737	61
5738	37
5739	40
5740	40
5741	50
5742	44
5743	36
5744	46
5745	37
5746	51
5747	57
5748	46
5749	46
5750	50
5751	47
5752	48
5753	35
5754	43
5755	31
5756	43
5757	54
5758	40
5759	44
5760	45
5761	52
5762	48
5763	45
5764	50
5765	36
5766	39
5767	38
5768	60
5769	53
5770	36
5771	45
5772	48
5773	39
5774	41
5775	46
5776	56
5777	64
5778	60
5779	59
5780	56
5781	48
5782	50
5783	54
5784	54
5785	52
5786	44
5787	36
5788	45
5789	37
5790	47
5791	45
5792	37
5793	44
5794	43
5795	49
5796	49
5797	48
5798	42
5799	46
5800	51
5801	46
5802	57
5803	36
5804	31
5805	45
5806	41
5807	44
5808	38
5809	51
5810	39
5811	41
5812	42
5813	36
5814	49
5815	41
5816	39
5817	45
5818	40
5819	40
5820	50
5821	53
5822	40
5823	41
5824	34
5825	47
5826	38
5827	55
5828	46
5829	42
5830	43
5831	33
5832	44
5833	51
5834	55
5835	30
5836	42
5837	42
5838	33
5839	41
5840	47
5841	47
5842	38
5843	44
5844	35
5845	49
5846	36
5847	50
5848	46
5849	51
5850	48
5851	37
5852	49
5853	38
5854	50
5855	43
5856	44
5857	39
5858	36
5859	40
5860	39
5861	53
5862	30
5863	45
5864	49
5865	47
5866	39
5867	35
5868	59
5869	47
5870	49
5871	47
5872	51
5873	38
5874	52
5875	47
5876	51
5877	48
5878	51
5879	40
5880	35
5881	46
5882	53
5883	36
5884	47
5885	47
5886	39
5887	35
5888	42
5889	49
5890	43
5891	49
5892	53
5893	44
5894	58
5895	48
5896	51
5897	41
5898	45
5899	42
5900	45
5901	48
5902	43
5903	42
5904	42
5905	60
5906	53
5907	37
5908	44
5909	49
5910	37
5911	48
5912	53
5913	40
5914	49
5915	60
5916	54
5917	47
5918	44
5919	50
5920	45
5921	57
5922	43
5923	44
5924	47
5925	37
5926	54
5927	53
5928	47
5929	50
5930	56
5931	54
5932	62
5933	46
5934	39
5935	53
5936	47
5937	49
5938	40
5939	50
5940	45
5941	51
5942	54
5943	41
5944	57
5945	38
5946	46
5947	47
5948	51
5949	56
5950	50
5951	42
5952	53
5953	56
5954	43
5955	54
5956	56
5957	58
5958	57
5959	63
5960	35
5961	36
5962	47
5963	38
5964	56
5965	53
5966	62
5967	48
5968	39
5969	42
5970	52
5971	57
5972	50
5973	50
5974	45
5975	55
5976	43
5977	44
5978	36
5979	58
5980	54
5981	57
5982	52
5983	55
5984	56
5985	51
5986	50
5987	50
5988	53
5989	43
5990	63
5991	46
5992	46
5993	39
5994	61
5995	57
5996	55
5997	46
5998	55
5999	39
6000	54
6001	41
6002	44
6003	56
6004	46
6005	54
6006	50
6007	49
6008	62
6009	63
6010	57
6011	48
6012	49
6013	47
6014	54
6015	65
6016	40
6017	53
6018	51
6019	58
6020	55
6021	53
6022	55
6023	44
6024	60
6025	42
6026	65
6027	46
6028	62
6029	56
6030	54
6031	56
6032	55
6033	55
6034	62
6035	60
6036	57
6037	50
6038	51
6039	59
6040	51
6041	48
6042	50
6043	59
6044	61
6045	48
6046	49
6047	51
6048	55
6049	44
6050	45
6051	56
6052	44
6053	43
6054	63
6055	51
6056	56
6057	49
6058	51
6059	52
6060	62
6061	40
6062	39
6063	40
6064	59
6065	44
6066	55
6067	62
6068	61
6069	60
6070	58
6071	58
6072	54
6073	68
6074	60
6075	57
6076	52
6077	46
6078	67
6079	53
6080	61
6081	40
6082	61
6083	65
6084	51
6085	61
6086	54
6087	67
6088	48
6089	51
6090	44
6091	53
6092	71
6093	55
6094	67
6095	63
6096	54
6097	60
6098	44
6099	55
6100	59
6101	59
6102	55
6103	59
6104	54
6105	70
6106	58
6107	59
6108	65
6109	48
6110	71
6111	55
6112	62
6113	56
6114	71
6115	50
6116	77
6117	70
6118	57
6119	63
6120	75
6121	70
6122	55
6123	50
6124	54
6125	60
6126	70
6127	60
6128	60
6129	65
6130	68
6131	57
6132	46
6133	64
6134	43
6135	59
6136	66
6137	63
6138	52
6139	60
6140	55
6141	62
6142	65
6143	71
6144	65
6145	57
6146	53
6147	47
6148	53
6149	64
6150	49
6151	64
6152	71
6153	59
6154	51
6155	78
6156	63
6157	57
6158	66
6159	65
6160	63
6161	54
6162	64
6163	73
6164	58
6165	55
6166	77
6167	67
6168	55
6169	70
6170	74
6171	63
6172	58
6173	57
6174	80
6175	61
6176	69
6177	67
6178	66
6179	42
6180	62
6181	56
6182	62
6183	60
6184	56
6185	65
6186	55
6187	47
6188	56
6189	74
6190	56
6191	68
6192	75
6193	65
6194	80
6195	74
6196	69
6197	62
6198	52
6199	60
6200	64
6201	68
6202	69
6203	53
6204	58
6205	63
6206	65
6207	65
6208	75
6209	70
6210	68
6211	73
6212	69
6213	62
6214	53
6215	62
6216	78
6217	63
6218	63
6219	60
6220	69
6221	75
6222	62
6223	51
6224	65
6225	61
6226	52
6227	56
6228	65
6229	65
6230	56
6231	50
6232	59
6233	61
6234	58
6235	51
6236	55
6237	52
6238	62
6239	68
6240	60
6241	42
6242	55
6243	63
6244	48
6245	49
6246	67
6247	53
6248	45
6249	48
6250	44
6251	46
6252	46
6253	59
6254	52
6255	40
6256	38
6257	49
6258	46
6259	46
6260	47
6261	44
6262	54
6263	44
6264	46
6265	40
6266	56
6267	37
6268	42
6269	49
6270	50
6271	43
6272	50
6273	37
6274	34
6275	41
6276	43
6277	44
6278	38
6279	57
6280	55
6281	34
6282	39
6283	36
6284	45
6285	44
6286	30
6287	47
6288	38
6289	38
6290	48
6291	37
6292	38
6293	34
6294	36
6295	56
6296	36
6297	40
6298	42
6299	25
6300	32
6301	52
6302	48
6303	46
6304	47
6305	41
6306	28
6307	36
6308	45
6309	39
6310	39
6311	41
6312	36
6313	36
6314	25
6315	43
6316	31
6317	46
6318	34
6319	51
6320	38
6321	40
6322	46
6323	41
6324	33
6325	45
6326	40
6327	40
6328	40
6329	51
6330	48
6331	34
6332	39
6333	41
6334	37
6335	36
6336	33
6337	40
6338	38
6339	43
6340	40
6341	33
6342	33
6343	30
6344	38
6345	30
6346	41
6347	36
6348	36
6349	43
6350	33
6351	40
6352	49
6353	37
6354	43
6355	35
6356	28
6357	37
6358	38
6359	37
6360	33
6361	30
6362	29
6363	35
6364	35
6365	31
6366	31
6367	45
6368	39
6369	35
6370	37
6371	35
6372	38
6373	29
6374	32
6375	37
6376	36
6377	34
6378	40
6379	33
6380	38
6381	31
6382	27
6383	29
6384	34
6385	40
6386	39
6387	33
6388	32
6389	25
6390	38
6391	35
6392	31
6393	28
6394	34
6395	30
6396	33
6397	21
6398	31
6399	38
6400	27
6401	38
6402	28
6403	28
6404	31
6405	41
6406	33
6407	38
6408	34
6409	40
6410	28
6411	43
6412	33
6413	39
6414	41
6415	35
6416	30
6417	28
6418	40
6419	26
6420	25
6421	37
6422	32
6423	34
6424	36
6425	27
6426	25
6427	34
6428	30
6429	34
6430	27
6431	24
6432	31
6433	26
6434	29
6435	27
6436	25
6437	29
6438	36
6439	24
6440	30
6441	18
6442	34
6443	32
6444	36
6445	33
6446	31
6447	29
6448	23
6449	34
6450	22
6451	25
6452	37
6453	33
6454	27
6455	23
6456	23
6457	29
6458	33
6459	29
6460	27
6461	28
6462	31
6463	24
6464	27
6465	23
6466	32
6467	24
6468	25
6469	28
6470	29
6471	21
6472	18
6473	35
6474	21
6475	33
6476	21
6477	28
6478	30
6479	23
6480	24
6481	29
6482	21
6483	31
6484	25
6485	24
6486	20
6487	16
6488	21
6489	21
6490	28
6491	29
6492	31
6493	19
6494	33
6495	25
6496	26
6497	26
6498	27
6499	22
6500	13
6501	25
6502	18
6503	24
6504	25
6505	24
6506	21
6507	27
6508	22
6509	21
6510	21
6511	19
6512	30
6513	18
6514	22
6515	25
6516	25
6517	18
6518	27
6519	19
6520	23
6521	21
6522	20
6523	23
6524	15
6525	19
6526	18
6527	19
6528	15
6529	14
6530	14
6531	22
6532	27
6533	27
6534	15
6535	19
6536	14
6537	16
6538	15
6539	20
6540	21
6541	17
6542	16
6543	18
6544	17
6545	14
6546	12
6547	13
6548	17
6549	19
6550	14
6551	19
6552	14
6553	11
6554	18
6555	9
6556	13
6557	7
6558	17
6559	13
6560	15
6561	9
6562	21
6563	13
6564	10
6565	13
6566	13
6567	14
6568	14
6569	21
6570	17
6571	10
6572	12
6573	12
6574	11
6575	18
6576	5
6577	11
6578	13
6579	11
6580	21
6581	16
6582	16
6583	14
6584	19
6585	21
6586	7
6587	14
6588	14
6589	9
6590	15
6591	13
6592	11
6593	13
6594	9
6595	12
6596	15
6597	11
6598	12
6599	13
6600	14
6601	13
6602	17
6603	6
6604	18
6605	16
6606	14
6607	10
6608	14
6609	6
6610	9
6611	16
6612	12
6613	13
6614	7
6615	13
6616	10
6617	15
6618	10
6619	16
6620	13
6621	12
6622	5
6623	5
6624	11
6625	12
6626	13
6627	17
6628	18
6629	14
6630	12
6631	14
6632	12
6633	10
6634	11
6635	10
6636	11
6637	9
6638	11
6639	13
6640	3
6641	9
6642	11
6643	6
6644	10
6645	8
6646	14
6647	12
6648	14
6649	15
6650	5
6651	12
6652	12
6653	12
6654	9
6655	9
6656	5
6657	6
6658	8
6659	14
6660	7
6661	7
6662	15
6663	6
6664	19
6665	9
6666	13
6667	14
6668	5
6669	11
6670	11
6671	12
6672	8
6673	8
6674	8
6675	5
6676	12
6677	7
6678	14
6679	10
6680	11
6681	11
6682	9
6683	12
6684	8
6685	15
6686	9
6687	5
6688	13
6689	7
6690	12
6691	13
6692	17
6693	9
6694	7
6695	6
6696	4
6697	14
6698	9
6699	8
6700	10
6701	9
6702	8
6703	6
6704	8
6705	14
6706	11
6707	8
6708	10
6709	7
6710	10
6711	11
6712	11
6713	6
6714	9
6715	16
6716	13
6717	9
6718	11
6719	9
6720	7
6721	9
6722	15
6723	4
6724	5
6725	7
6726	7
6727	7
6728	6
6729	14
6730	8
6731	7
6732	9
6733	4
6734	9
6735	9
6736	6
6737	7
6738	10
6739	5
6740	9
6741	11
6742	10
6743	8
6744	7
6745	11
6746	12
6747	7
6748	8
6749	11
6750	7
6751	9
6752	9
6753	10
6754	2
6755	5
6756	9
6757	9
6758	8
6759	12
6760	7
6761	10
6762	7
6763	8
6764	5
6765	6
6766	14
6767	7
6768	9
6769	12
6770	6
6771	9
6772	6
6773	16
6774	13
6775	12
6776	14
6777	12
6778	8
6779	13
6780	10
6781	11
6782	5
6783	8
6784	9
6785	11
6786	8
6787	16
6788	12
6789	17
6790	11
6791	14
6792	10
6793	8
6794	6
6795	6
6796	8
6797	10
6798	9
6799	13
6800	5
6801	4
6802	5
6803	11
6804	10
6805	7
6806	7
6807	9
6808	12
6809	6
6810	14
6811	10
6812	7
6813	13
6814	8
6815	6
6816	7
6817	11
6818	9
6819	14
6820	15
6821	10
6822	4
6823	24
6824	7
6825	11
6826	12
6827	7
6828	23
6829	12
6830	14
6831	22
6832	24
6833	30
6834	70
6835	145
6836	327
6837	579
6838	1008
6839	1659
6840	2268
6841	2735
6842	3111
6843	2963
6844	2482
6845	1845
6846	1303
6847	772
6848	428
6849	199
6850	90
6851	39
6852	23
6853	17
6854	16
6855	9
6856	11
6857	9
6858	4
6859	8
6860	5
6861	7
6862	11
6863	9
6864	10
6865	11
6866	6
6867	6
6868	9
6869	6
6870	9
6871	11
6872	9
6873	8
6874	4
6875	6
6876	4
6877	3
6878	4
6879	5
6880	6
6881	6
6882	5
6883	3
6884	6
6885	5
6886	7
6887	11
6888	2
6889	4
6890	8
6891	8
6892	4
6893	10
6894	8
6895	10
6896	8
6897	8
6898	4
6899	4
6900	5
6901	1
6902	5
6903	6
6904	4
6905	8
6906	6
6907	3
6908	3
6909	6
6910	5
6911	6
6912	5
6913	8
6914	5
6915	4
6916	12
6917	5
6918	6
6919	0
6920	3
6921	9
6922	6
6923	6
6924	6
6925	6
6926	5
6927	6
6928	6
6929	2
6930	4
6931	2
6932	6
6933	5
6934	4
6935	3
6936	1
6937	5
6938	2
6939	3
6940	5
6941	6
6942	4
6943	8
6944	7
6945	9
6946	6
6947	6
6948	2
6949	2
6950	4
6951	9
6952	5
6953	4
6954	1
6955	8
6956	3
6957	4
6958	9
6959	3
6960	7
6961	6
6962	4
6963	3
6964	3
6965	4
6966	4
6967	7
6968	8
6969	4
6970	5
6971	3
6972	2
6973	8
6974	1
6975	4
6976	4
6977	3
6978	6
6979	2
6980	5
6981	8
6982	3
6983	8
6984	7
6985	9
6986	4
6987	9
6988	7
6989	5
6990	5
6991	7
6992	7
6993	4
6994	4
6995	5
6996	1
6997	3
6998	7
6999	2
7000	3
7001	8
7002	6
7003	5
7004	1
7005	3
7006	3
7007	5
7008	9
7009	6
7010	5
7011	4
7012	5
7013	3
7014	4
7015	7
7016	5
7017	6
7018	4
7019	7
7020	3
7021	5
7022	7
7023	4
7024	7
7025	11
7026	10
7027	11
7028	16
7029	14
7030	10
7031	6
7032	7
7033	7
7034	8
7035	8
7036	8
7037	7
7038	9
7039	13
7040	9
7041	5
7042	6
7043	2
7044	5
7045	4
7046	4
7047	5
7048	3
7049	5
7050	7
7051	3
7052	5
7053	2
7054	3
7055	7
7056	2
7057	1
7058	3
7059	5
7060	7
7061	2
7062	7
7063	5
7064	9
7065	3
7066	2
7067	9
7068	8
7069	6
7070	4
7071	5
7072	3
7073	4
7074	4
7075	2
7076	6
7077	9
7078	4
7079	5
7080	4
7081	4
7082	8
7083	1
7084	8
7085	5
7086	5
7087	4
7088	3
7089	6
7090	8
7091	3
7092	8
7093	0
7094	2
7095	3
7096	3
7097	3
7098	2
7099	7
7100	4
7101	4
7102	5
7103	5
7104	3
7105	5
7106	11
7107	7
7108	3
7109	3
7110	4
7111	3
7112	5
7113	2
7114	2
7115	6
7116	5
7117	6
7118	6
7119	6
7120	1
7121	6
7122	4
7123	3
7124	5
7125	3
7126	5
7127	4
7128	8
7129	2
7130	7
7131	2
7132	3
7133	4
7134	1
7135	6
7136	6
7137	5
7138	6
7139	7
7140	6
7141	5
7142	9
7143	2
7144	3
7145	3
7146	4
7147	3
7148	2
7149	2
7150	4
7151	1
7152	1
7153	7
7154	8
7155	1
7156	9
7157	5
7158	3
7159	5
7160	8
7161	4
7162	4
7163	2
7164	1
7165	2
7166	2
7167	4
7168	1
7169	6
7170	4
7171	0
7172	4
7173	5
7174	4
7175	2
7176	4
7177	6
7178	6
7179	6
7180	4
7181	3
7182	4
7183	9
7184	3
7185	0
7186	4
7187	6
7188	7
7189	6
7190	4
7191	3
7192	3
7193	6
7194	5
7195	6
7196	5
7197	3
7198	3
7199	4
7200	2
7201	3
7202	9
7203	5
7204	3
7205	5
7206	6
7207	3
7208	5
7209	2
7210	6
7211	4
7212	3
7213	5
7214	5
7215	3
7216	8
7217	2
7218	5
7219	7
7220	5
7221	3
7222	3
7223	6
7224	4
7225	6
7226	5
7227	4
7228	6
7229	6
7230	2
7231	2
7232	3
7233	2
7234	3
7235	2
7236	5
7237	9
7238	5
7239	3
7240	7
7241	4
7242	2
7243	9
7244	2
7245	3
7246	1
7247	5
7248	3
7249	3
7250	4
7251	5
7252	8
7253	2
7254	6
7255	3
7256	5
7257	5
7258	4
7259	4
7260	1
7261	6
7262	9
7263	6
7264	3
7265	4
7266	1
7267	1
7268	7
7269	3
7270	5
7271	3
7272	4
7273	6
7274	7
7275	2
7276	5
7277	8
7278	2
7279	2
7280	7
7281	4
7282	4
7283	5
7284	7
7285	4
7286	5
7287	7
7288	6
7289	2
7290	4
7291	2
7292	4
7293	8
7294	4
7295	5
7296	5
7297	5
7298	6
7299	6
7300	4
7301	6
7302	5
7303	4
7304	5
7305	3
7306	4
7307	3
7308	2
7309	7
7310	3
7311	4
7312	6
7313	6
7314	8
7315	6
7316	5
7317	6
7318	4
7319	4
7320	6
7321	5
7322	4
7323	8
7324	5
7325	3
7326	4
7327	4
7328	0
7329	2
7330	5
7331	7
7332	6
7333	1
7334	2
7335	2
7336	6
7337	3
7338	3
7339	4
7340	2
7341	6
7342	3
7343	7
7344	6
7345	4
7346	0
7347	5
7348	1
7349	4
7350	2
7351	5
7352	4
7353	5
7354	3
7355	5
7356	5
7357	5
7358	3
7359	3
7360	5
7361	7
7362	1
7363	3
7364	5
7365	4
7366	7
7367	5
7368	8
7369	6
7370	6
7371	3
7372	4
7373	4
7374	3
7375	2
7376	3
7377	4
7378	4
7379	2
7380	4
7381	0
7382	0
7383	2
7384	4
7385	4
7386	6
7387	5
7388	6
7389	4
7390	3
7391	6
7392	1
7393	1
7394	3
7395	7
7396	0
7397	3
7398	0
7399	9
7400	1
7401	3
7402	4
7403	5
7404	6
7405	0
7406	3
7407	4
7408	6
7409	3
7410	4
7411	6
7412	2
7413	5
7414	4
7415	2
7416	4
7417	3
7418	1
7419	4
7420	7
7421	2
7422	0
7423	1
7424	1
7425	5
7426	1
7427	4
7428	4
7429	2
7430	4
7431	5
7432	6
7433	3
7434	3
7435	4
7436	3
7437	3
7438	4
7439	1
7440	3
7441	2
7442	6
7443	5
7444	4
7445	8
7446	6
7447	1
7448	3
7449	3
7450	3
7451	5
7452	5
7453	2
7454	6
7455	2
7456	5
7457	4
7458	1
7459	1
7460	5
7461	2
7462	4
7463	3
7464	5
7465	3
7466	2
7467	9
7468	2
7469	4
7470	5
7471	6
7472	2
7473	7
7474	2
7475	2
7476	2
7477	2
7478	3
7479	3
7480	4
7481	4
7482	7
7483	7
7484	4
7485	3
7486	6
7487	2
7488	5
7489	6
7490	6
7491	4
7492	6
7493	6
7494	3
7495	5
7496	2
7497	6
7498	6
7499	3
7500	8
7501	5
7502	7
7503	4
7504	6
7505	3
7506	6
7507	3
7508	5
7509	2
7510	5
7511	2
7512	2
7513	3
7514	2
7515	1
7516	1
7517	5
7518	3
7519	4
7520	4
7521	5
7522	2
7523	5
7524	5
7525	7
7526	6
7527	4
7528	5
7529	5
7530	2
7531	6
7532	4
7533	5
7534	2
7535	2
7536	1
7537	6
7538	2
7539	2
7540	1
7541	6
7542	5
7543	2
7544	3
7545	0
7546	1
7547	3
7548	5
7549	3
7550	4
7551	3
7552	1
7553	3
7554	6
7555	6
7556	4
7557	5
7558	4
7559	9
7560	13
7561	9
7562	7
7563	10
7564	5
7565	0
7566	3
7567	4
7568	2
7569	2
7570	3
7571	6
7572	6
7573	2
7574	3
7575	2
7576	2
7577	2
7578	3
7579	3
7580	8
7581	5
7582	3
7583	3
7584	1
7585	4
7586	5
7587	3
7588	6
7589	2
7590	3
7591	2
7592	1
7593	3
7594	5
7595	4
7596	3
7597	6
7598	5
7599	1
7600	6
7601	2
7602	6
7603	7
7604	1
7605	4
7606	3
7607	4
7608	7
7609	5
7610	2
7611	1
7612	2
7613	6
7614	4
7615	1
7616	2
7617	2
7618	3
7619	1
7620	1
7621	4
7622	7
7623	2
7624	3
7625	1
7626	7
7627	1
7628	4
7629	7
7630	4
7631	7
7632	6
7633	2
7634	5
7635	3
7636	7
7637	5
7638	4
7639	1
7640	4
7641	2
7642	1
7643	1
7644	3
7645	4
7646	2
7647	7
7648	5
7649	4
7650	7
7651	7
7652	1
7653	3
7654	3
7655	3
7656	4
7657	8
7658	2
7659	3
7660	4
7661	3
7662	3
7663	7
7664	5
7665	5
7666	8
7667	5
7668	3
7669	1
7670	3
7671	3
7672	1
7673	1
7674	5
7675	3
7676	3
7677	4
7678	2
7679	4
7680	2
7681	3
7682	3
7683	5
7684	2
7685	9
7686	2
7687	4
7688	3
7689	2
7690	7
7691	6
7692	3
7693	2
7694	2
7695	4
7696	1
7697	4
7698	4
7699	4
7700	2
7701	0
7702	0
7703	6
7704	4
7705	3
7706	4
7707	4
7708	7
7709	5
7710	2
7711	2
7712	3
7713	2
7714	5
7715	2
7716	1
7717	3
7718	3
7719	0
7720	7
7721	3
7722	2
7723	2
7724	8
7725	5
7726	3
7727	1
7728	4
7729	3
7730	1
7731	4
7732	7
7733	2
7734	5
7735	4
7736	2
7737	1
7738	4
7739	1
7740	4
7741	1
7742	6
7743	2
7744	3
7745	0
7746	1
7747	2
7748	6
7749	4
7750	3
7751	9
7752	4
7753	4
7754	3
7755	3
7756	0
7757	1
7758	2
7759	3
7760	6
7761	8
7762	4
7763	3
7764	2
7765	6
7766	0
7767	2
7768	2
7769	6
7770	2
7771	2
7772	7
7773	4
7774	7
7775	6
7776	2
7777	1
7778	3
7779	2
7780	0
7781	1
7782	4
7783	3
7784	3
7785	3
7786	0
7787	1
7788	1
7789	2
7790	2
7791	3
7792	6
7793	5
7794	2
7795	4
7796	1
7797	1
7798	3
7799	5
7800	4
7801	6
7802	0
7803	3
7804	4
7805	0
7806	1
7807	3
7808	1
7809	2
7810	2
7811	5
7812	3
7813	1
7814	2
7815	1
7816	9
7817	1
7818	2
7819	6
7820	6
7821	2
7822	4
7823	5
7824	3
7825	3
7826	2
7827	6
7828	3
7829	4
7830	4
7831	1
7832	5
7833	6
7834	5
7835	2
7836	2
7837	3
7838	4
7839	2
7840	1
7841	0
7842	2
7843	5
7844	2
7845	3
7846	2
7847	2
7848	4
7849	2
7850	4
7851	1
7852	3
7853	2
7854	3
7855	2
7856	3
7857	3
7858	3
7859	0
7860	6
7861	3
7862	5
7863	1
7864	3
7865	1
7866	1
7867	3
7868	6
7869	1
7870	4
7871	1
7872	2
7873	1
7874	2
7875	1
7876	3
7877	1
7878	1
7879	3
7880	1
7881	3
7882	4
7883	1
7884	4
7885	3
7886	0
7887	3
7888	2
7889	2
7890	6
7891	2
7892	2
7893	2
7894	3
7895	6
7896	5
7897	3
7898	3
7899	2
7900	1
7901	3
7902	2
7903	3
7904	1
7905	3
7906	1
7907	2
7908	0
7909	2
7910	2
7911	3
7912	0
7913	3
7914	1
7915	3
7916	1
7917	4
7918	2
7919	3
7920	4
7921	4
7922	4
7923	2
7924	3
7925	2
7926	3
7927	2
7928	0
7929	0
7930	2
7931	3
7932	2
7933	2
7934	1
7935	2
7936	3
7937	2
7938	1
7939	1
7940	2
7941	3
7942	2
7943	0
7944	3
7945	2
7946	1
7947	1
7948	0
7949	1
7950	2
7951	2
7952	2
7953	1
7954	0
7955	3
7956	2
7957	4
7958	0
7959	2
7960	2
7961	1
7962	1
7963	1
7964	3
7965	2
7966	2
7967	2
7968	2
7969	0
7970	2
7971	3
7972	2
7973	1
7974	4
7975	3
7976	3
7977	3
7978	6
7979	1
7980	3
7981	2
7982	0
7983	0
7984	3
7985	3
7986	2
7987	1
7988	0
7989	1
7990	1
7991	1
7992	3
7993	3
7994	2
7995	0
7996	1
7997	2
7998	0
7999	1
8000	1
8001	1
8002	0
8003	1
8004	1
8005	0
8006	2
8007	2
8008	2
8009	0
8010	2
8011	1
8012	5
8013	1
8014	1
8015	3
8016	1
8017	2
8018	0
8019	1
8020	2
8021	0
8022	0
8023	1
8024	0
8025	2
8026	1
8027	1
8028	5
8029	2
8030	1
8031	2
8032	3
8033	2
8034	1
8035	3
8036	2
8037	0
8038	0
8039	1
8040	2
8041	1
8042	1
8043	1
8044	0
8045	4
8046	1
8047	0
8048	2
8049	2
8050	1
8051	0
8052	4
8053	2
8054	2
8055	1
8056	2
8057	3
8058	1
8059	0
8060	0
8061	2
8062	2
8063	0
8064	0
8065	0
8066	0
8067	0
8068	0
8069	0
8070	0
8071	0
8072	0
8073	0
8074	0
8075	0
8076	0
8077	0
8078	0
8079	0
8080	0
8081	0
8082	0
8083	0
8084	0
8085	0
8086	0
8087	0
8088	0
8089	0
8090	0
8091	0
8092	0
8093	0
8094	0
8095	0
8096	0
8097	0
8098	0
8099	0
8100	0
8101	0
8102	0
8103	0
8104	0
8105	0
8106	0
8107	0
8108	0
8109	0
8110	0
8111	0
8112	0
8113	0
8114	0
8115	0
8116	0
8117	0
8118	0
8119	0
8120	0
8121	0
8122	0
8123	0
8124	0
8125	0
8126	0
8127	0
8128	0
8129	0
8130	0
8131	0
8132	0
8133	0
8134	0
8135	0
8136	0
8137	0
8138	0
8139	0
8140	0
8141	0
8142	0
8143	0
8144	0
8145	0
8146	0
8147	0
8148	0
8149	0
8150	0
8151	0
8152	0
8153	0
8154	0
8155	0
8156	0
8157	0
8158	0
8159	0
8160	0
8161	0
8162	0
8163	0
8164	0
8165	0
8166	0
8167	0
8168	0
8169	0
8170	0
8171	0
8172	0
8173	0
8174	0
8175	0
8176	0
8177	0
8178	0
8179	0
8180	0
8181	0
8182	0
8183	0
8184	0
8185	0
8186	0
8187	0
8188	0
8189	0
8190	0
8191	0
