0	0
1	0
2	0
3	0
4	0
5	0
6	0
7	0
8	0
9	0
10	0
11	0
12	0
13	0
14	0
15	0
16	0
17	0
18	0
19	0
20	0
21	0
22	0
23	0
24	0
25	0
26	0
27	0
28	0
29	0
30	0
31	0
32	0
33	0
34	0
35	0
36	0
37	0
38	0
39	0
40	0
41	0
42	0
43	0
44	0
45	0
46	0
47	0
48	0
49	0
50	0
51	0
52	0
53	0
54	0
55	0
56	0
57	0
58	0
59	0
60	0
61	0
62	0
63	0
64	0
65	0
66	0
67	0
68	0
69	0
70	0
71	0
72	0
73	0
74	0
75	0
76	0
77	0
78	0
79	0
80	0
81	0
82	0
83	0
84	0
85	0
86	0
87	0
88	0
89	0
90	0
91	0
92	0
93	0
94	0
95	0
96	0
97	0
98	0
99	0
100	0
101	0
102	0
103	0
104	0
105	0
106	0
107	0
108	0
109	0
110	0
111	0
112	0
113	0
114	0
115	0
116	0
117	0
118	55
119	209
120	408
121	467
122	473
123	481
124	437
125	487
126	475
127	473
128	498
129	448
130	472
131	481
132	448
133	446
134	447
135	454
136	462
137	444
138	442
139	453
140	435
141	414
142	452
143	436
144	378
145	455
146	440
147	412
148	446
149	435
150	431
151	434
152	463
153	435
154	413
155	403
156	380
157	407
158	409
159	419
160	434
161	392
162	410
163	417
164	419
165	391
166	414
167	399
168	396
169	360
170	426
171	398
172	422
173	398
174	380
175	374
176	422
177	364
178	387
179	402
180	408
181	391
182	368
183	390
184	359
185	374
186	399
187	388
188	377
189	369
190	379
191	376
192	402
193	382
194	401
195	388
196	420
197	363
198	366
199	391
200	350
201	353
202	352
203	370
204	416
205	373
206	378
207	371
208	394
209	376
210	361
211	364
212	378
213	393
214	373
215	346
216	393
217	359
218	334
219	394
220	342
221	356
222	351
223	395
224	432
225	344
226	369
227	334
228	352
229	354
230	387
231	366
232	371
233	366
234	375
235	335
236	372
237	385
238	381
239	377
240	365
241	350
242	333
243	392
244	356
245	370
246	376
247	378
248	381
249	372
250	359
251	369
252	364
253	377
254	383
255	375
256	392
257	356
258	353
259	357
260	363
261	347
262	310
263	350
264	394
265	360
266	377
267	358
268	360
269	375
270	388
271	367
272	374
273	359
274	378
275	353
276	413
277	354
278	389
279	378
280	380
281	385
282	354
283	358
284	381
285	374
286	370
287	443
288	413
289	372
290	375
291	364
292	400
293	400
294	399
295	386
296	360
297	381
298	397
299	388
300	392
301	369
302	385
303	370
304	365
305	388
306	378
307	377
308	365
309	355
310	358
311	403
312	360
313	361
314	384
315	392
316	330
317	347
318	369
319	357
320	368
321	386
322	362
323	385
324	375
325	357
326	385
327	351
328	416
329	373
330	357
331	428
332	348
333	362
334	342
335	425
336	391
337	354
338	373
339	367
340	358
341	356
342	365
343	369
344	364
345	370
346	366
347	371
348	371
349	378
350	386
351	362
352	377
353	386
354	382
355	423
356	391
357	377
358	368
359	387
360	338
361	413
362	392
363	368
364	358
365	377
366	390
367	377
368	406
369	365
370	390
371	407
372	391
373	395
374	415
375	392
376	377
377	415
378	377
379	401
380	447
381	525
382	692
383	828
384	868
385	873
386	696
387	491
388	411
389	396
390	389
391	386
392	395
393	391
394	382
395	333
396	390
397	392
398	397
399	434
400	404
401	409
402	401
403	417
404	406
405	392
406	404
407	410
408	393
409	386
410	389
411	389
412	432
413	371
414	404
415	393
416	357
417	389
418	451
419	425
420	440
421	439
422	482
423	443
424	447
425	432
426	410
427	387
428	403
429	409
430	404
431	369
432	400
433	411
434	388
435	426
436	399
437	407
438	386
439	394
440	389
441	418
442	402
443	376
444	406
445	388
446	378
447	383
448	378
449	406
450	431
451	388
452	404
453	405
454	378
455	393
456	399
457	449
458	452
459	374
460	428
461	387
462	386
463	404
464	429
465	422
466	416
467	350
468	386
469	370
470	361
471	403
472	381
473	402
474	388
475	421
476	389
477	389
478	420
479	396
480	438
481	404
482	393
483	382
484	424
485	419
486	416
487	415
488	383
489	389
490	370
491	398
492	405
493	405
494	434
495	427
496	386
497	418
498	401
499	373
500	417
501	390
502	412
503	394
504	451
505	388
506	421
507	405
508	417
509	407
510	456
511	442
512	448
513	454
514	423
515	469
516	442
517	390
518	486
519	435
520	400
521	478
522	426
523	465
524	430
525	443
526	435
527	479
528	428
529	464
530	460
531	433
532	434
533	435
534	449
535	452
536	474
537	465
538	433
539	456
540	447
541	440
542	454
543	527
544	464
545	528
546	499
547	532
548	519
549	490
550	495
551	519
552	518
553	505
554	510
555	545
556	538
557	512
558	484
559	533
560	488
561	542
562	568
563	479
564	490
565	509
566	520
567	511
568	517
569	535
570	497
571	519
572	532
573	537
574	500
575	508
576	497
577	489
578	494
579	492
580	485
581	468
582	468
583	451
584	528
585	500
586	482
587	467
588	521
589	478
590	498
591	490
592	502
593	427
594	458
595	465
596	472
597	477
598	498
599	470
600	493
601	483
602	484
603	472
604	458
605	458
606	441
607	469
608	447
609	459
610	511
611	481
612	423
613	432
614	468
615	484
616	460
617	473
618	417
619	455
620	517
621	484
622	467
623	459
624	484
625	461
626	460
627	510
628	475
629	455
630	444
631	450
632	474
633	491
634	469
635	467
636	470
637	470
638	446
639	453
640	472
641	501
642	442
643	446
644	454
645	503
646	446
647	494
648	467
649	476
650	457
651	478
652	449
653	499
654	490
655	437
656	440
657	425
658	477
659	496
660	446
661	434
662	471
663	459
664	439
665	439
666	479
667	458
668	453
669	456
670	454
671	456
672	433
673	437
674	494
675	458
676	439
677	470
678	428
679	422
680	437
681	441
682	478
683	402
684	450
685	442
686	419
687	439
688	461
689	424
690	405
691	477
692	417
693	431
694	412
695	442
696	384
697	434
698	452
699	414
700	434
701	396
702	391
703	396
704	398
705	424
706	432
707	392
708	408
709	422
710	431
711	439
712	430
713	409
714	395
715	400
716	373
717	422
718	419
719	404
720	414
721	400
722	394
723	396
724	388
725	390
726	385
727	387
728	405
729	402
730	416
731	412
732	420
733	373
734	394
735	402
736	389
737	400
738	424
739	375
740	402
741	402
742	415
743	414
744	392
745	412
746	434
747	423
748	394
749	396
750	364
751	380
752	403
753	378
754	362
755	395
756	379
757	368
758	390
759	363
760	422
761	423
762	389
763	447
764	359
765	382
766	376
767	403
768	362
769	379
770	379
771	398
772	425
773	406
774	408
775	437
776	380
777	400
778	373
779	377
780	371
781	376
782	346
783	322
784	395
785	387
786	355
787	354
788	393
789	379
790	365
791	356
792	400
793	394
794	374
795	374
796	359
797	382
798	375
799	361
800	380
801	389
802	360
803	366
804	371
805	386
806	405
807	370
808	362
809	371
810	391
811	359
812	369
813	339
814	370
815	409
816	390
817	355
818	367
819	389
820	361
821	392
822	383
823	376
824	388
825	369
826	394
827	365
828	378
829	379
830	377
831	352
832	358
833	369
834	407
835	367
836	372
837	367
838	365
839	375
840	370
841	352
842	353
843	380
844	373
845	380
846	368
847	365
848	378
849	356
850	386
851	357
852	387
853	385
854	391
855	375
856	353
857	403
858	371
859	402
860	379
861	382
862	371
863	366
864	362
865	387
866	336
867	354
868	375
869	343
870	372
871	368
872	394
873	360
874	389
875	399
876	359
877	390
878	388
879	393
880	390
881	364
882	358
883	375
884	414
885	347
886	365
887	410
888	360
889	373
890	386
891	403
892	369
893	403
894	345
895	357
896	366
897	359
898	396
899	373
900	358
901	381
902	396
903	383
904	355
905	303
906	374
907	383
908	366
909	381
910	335
911	366
912	366
913	388
914	385
915	363
916	367
917	332
918	359
919	360
920	382
921	327
922	380
923	378
924	358
925	394
926	369
927	374
928	401
929	410
930	386
931	392
932	369
933	364
934	357
935	363
936	368
937	366
938	350
939	373
940	356
941	346
942	347
943	385
944	373
945	351
946	345
947	340
948	358
949	328
950	360
951	365
952	373
953	348
954	349
955	330
956	363
957	346
958	378
959	380
960	368
961	314
962	353
963	359
964	321
965	351
966	307
967	333
968	320
969	346
970	324
971	345
972	337
973	318
974	308
975	307
976	330
977	317
978	327
979	324
980	309
981	305
982	308
983	330
984	371
985	323
986	329
987	332
988	313
989	315
990	309
991	359
992	336
993	317
994	349
995	304
996	335
997	333
998	324
999	329
1000	311
1001	343
1002	300
1003	339
1004	325
1005	341
1006	302
1007	306
1008	299
1009	339
1010	323
1011	328
1012	330
1013	311
1014	343
1015	265
1016	320
1017	309
1018	348
1019	321
1020	312
1021	316
1022	313
1023	290
1024	323
1025	313
1026	355
1027	280
1028	340
1029	332
1030	314
1031	279
1032	303
1033	310
1034	349
1035	376
1036	299
1037	290
1038	342
1039	328
1040	315
1041	336
1042	332
1043	326
1044	312
1045	302
1046	312
1047	321
1048	301
1049	308
1050	332
1051	308
1052	310
1053	309
1054	319
1055	342
1056	306
1057	280
1058	308
1059	323
1060	307
1061	313
1062	303
1063	305
1064	303
1065	344
1066	308
1067	313
1068	294
1069	304
1070	311
1071	313
1072	299
1073	312
1074	297
1075	307
1076	309
1077	332
1078	297
1079	297
1080	305
1081	346
1082	303
1083	335
1084	323
1085	313
1086	310
1087	320
1088	313
1089	339
1090	328
1091	306
1092	331
1093	325
1094	286
1095	339
1096	317
1097	324
1098	316
1099	317
1100	317
1101	303
1102	325
1103	321
1104	348
1105	324
1106	311
1107	296
1108	331
1109	349
1110	296
1111	306
1112	291
1113	300
1114	334
1115	347
1116	334
1117	345
1118	343
1119	332
1120	289
1121	342
1122	356
1123	307
1124	353
1125	341
1126	315
1127	289
1128	308
1129	347
1130	315
1131	334
1132	334
1133	321
1134	343
1135	305
1136	317
1137	320
1138	322
1139	316
1140	365
1141	363
1142	312
1143	310
1144	373
1145	372
1146	327
1147	295
1148	354
1149	324
1150	314
1151	329
1152	312
1153	336
1154	338
1155	335
1156	333
1157	324
1158	339
1159	349
1160	315
1161	347
1162	329
1163	323
1164	345
1165	355
1166	344
1167	353
1168	372
1169	336
1170	325
1171	329
1172	370
1173	345
1174	307
1175	318
1176	354
1177	331
1178	359
1179	347
1180	367
1181	334
1182	352
1183	365
1184	334
1185	343
1186	364
1187	340
1188	368
1189	352
1190	364
1191	298
1192	376
1193	374
1194	327
1195	349
1196	354
1197	347
1198	368
1199	325
1200	379
1201	376
1202	351
1203	352
1204	367
1205	371
1206	355
1207	345
1208	351
1209	353
1210	340
1211	366
1212	359
1213	393
1214	365
1215	345
1216	356
1217	384
1218	370
1219	383
1220	384
1221	353
1222	385
1223	383
1224	373
1225	368
1226	334
1227	363
1228	377
1229	369
1230	366
1231	368
1232	402
1233	377
1234	416
1235	359
1236	369
1237	344
1238	369
1239	354
1240	350
1241	356
1242	366
1243	391
1244	410
1245	359
1246	401
1247	384
1248	355
1249	370
1250	368
1251	377
1252	395
1253	393
1254	396
1255	416
1256	384
1257	364
1258	370
1259	388
1260	378
1261	389
1262	393
1263	403
1264	403
1265	381
1266	409
1267	387
1268	396
1269	378
1270	384
1271	387
1272	375
1273	420
1274	382
1275	413
1276	425
1277	411
1278	393
1279	428
1280	386
1281	392
1282	347
1283	410
1284	371
1285	400
1286	390
1287	418
1288	378
1289	379
1290	385
1291	395
1292	402
1293	355
1294	399
1295	335
1296	357
1297	369
1298	372
1299	365
1300	349
1301	351
1302	344
1303	352
1304	333
1305	308
1306	312
1307	293
1308	288
1309	314
1310	271
1311	293
1312	327
1313	281
1314	287
1315	315
1316	271
1317	304
1318	299
1319	307
1320	284
1321	247
1322	296
1323	269
1324	275
1325	286
1326	283
1327	276
1328	276
1329	258
1330	274
1331	246
1332	254
1333	212
1334	287
1335	246
1336	238
1337	249
1338	242
1339	255
1340	217
1341	252
1342	272
1343	274
1344	243
1345	211
1346	258
1347	246
1348	234
1349	227
1350	258
1351	216
1352	236
1353	224
1354	261
1355	237
1356	228
1357	230
1358	256
1359	222
1360	237
1361	249
1362	219
1363	234
1364	202
1365	213
1366	236
1367	232
1368	236
1369	240
1370	220
1371	228
1372	230
1373	209
1374	222
1375	223
1376	249
1377	222
1378	246
1379	247
1380	227
1381	251
1382	336
1383	394
1384	520
1385	770
1386	1146
1387	1665
1388	2172
1389	2765
1390	3133
1391	3304
1392	3067
1393	2714
1394	2090
1395	1469
1396	1028
1397	684
1398	480
1399	332
1400	276
1401	217
1402	224
1403	200
1404	207
1405	206
1406	214
1407	198
1408	182
1409	179
1410	204
1411	189
1412	201
1413	200
1414	153
1415	183
1416	195
1417	195
1418	202
1419	164
1420	183
1421	175
1422	199
1423	175
1424	175
1425	206
1426	171
1427	193
1428	187
1429	200
1430	166
1431	183
1432	174
1433	166
1434	180
1435	183
1436	163
1437	202
1438	186
1439	149
1440	174
1441	162
1442	165
1443	167
1444	164
1445	140
1446	172
1447	178
1448	165
1449	153
1450	172
1451	166
1452	154
1453	172
1454	177
1455	137
1456	152
1457	166
1458	169
1459	167
1460	182
1461	172
1462	154
1463	148
1464	137
1465	171
1466	154
1467	160
1468	146
1469	168
1470	183
1471	165
1472	163
1473	145
1474	186
1475	153
1476	179
1477	145
1478	135
1479	173
1480	149
1481	164
1482	164
1483	136
1484	141
1485	144
1486	161
1487	129
1488	153
1489	146
1490	125
1491	138
1492	145
1493	154
1494	136
1495	141
1496	145
1497	138
1498	150
1499	154
1500	140
1501	134
1502	142
1503	137
1504	135
1505	135
1506	133
1507	126
1508	136
1509	153
1510	153
1511	148
1512	111
1513	129
1514	140
1515	143
1516	145
1517	138
1518	131
1519	132
1520	119
1521	135
1522	143
1523	118
1524	120
1525	116
1526	146
1527	115
1528	138
1529	139
1530	124
1531	129
1532	117
1533	113
1534	140
1535	138
1536	131
1537	113
1538	149
1539	153
1540	119
1541	117
1542	124
1543	141
1544	122
1545	124
1546	139
1547	127
1548	141
1549	152
1550	122
1551	140
1552	127
1553	130
1554	116
1555	145
1556	123
1557	102
1558	131
1559	114
1560	129
1561	124
1562	118
1563	132
1564	122
1565	124
1566	132
1567	130
1568	155
1569	142
1570	110
1571	135
1572	108
1573	120
1574	147
1575	135
1576	128
1577	117
1578	143
1579	128
1580	135
1581	132
1582	116
1583	124
1584	132
1585	120
1586	143
1587	125
1588	129
1589	119
1590	115
1591	118
1592	129
1593	122
1594	136
1595	118
1596	151
1597	128
1598	141
1599	117
1600	127
1601	107
1602	127
1603	136
1604	139
1605	146
1606	133
1607	126
1608	114
1609	136
1610	126
1611	104
1612	124
1613	130
1614	110
1615	142
1616	141
1617	117
1618	139
1619	126
1620	143
1621	115
1622	136
1623	139
1624	113
1625	96
1626	107
1627	122
1628	122
1629	107
1630	119
1631	133
1632	113
1633	121
1634	104
1635	123
1636	124
1637	116
1638	121
1639	115
1640	100
1641	133
1642	126
1643	149
1644	124
1645	121
1646	149
1647	115
1648	118
1649	132
1650	131
1651	122
1652	126
1653	116
1654	125
1655	139
1656	120
1657	109
1658	143
1659	131
1660	129
1661	131
1662	158
1663	121
1664	100
1665	122
1666	120
1667	113
1668	125
1669	127
1670	112
1671	130
1672	132
1673	131
1674	115
1675	159
1676	124
1677	131
1678	125
1679	129
1680	127
1681	125
1682	132
1683	129
1684	133
1685	107
1686	119
1687	119
1688	94
1689	110
1690	115
1691	126
1692	121
1693	118
1694	128
1695	89
1696	133
1697	117
1698	121
1699	112
1700	141
1701	112
1702	119
1703	114
1704	132
1705	118
1706	123
1707	108
1708	122
1709	114
1710	126
1711	147
1712	130
1713	119
1714	110
1715	121
1716	137
1717	132
1718	120
1719	125
1720	108
1721	126
1722	154
1723	128
1724	121
1725	121
1726	131
1727	110
1728	136
1729	110
1730	111
1731	135
1732	126
1733	108
1734	124
1735	120
1736	119
1737	106
1738	119
1739	119
1740	136
1741	110
1742	147
1743	112
1744	102
1745	117
1746	131
1747	101
1748	104
1749	132
1750	128
1751	130
1752	132
1753	117
1754	128
1755	127
1756	141
1757	117
1758	108
1759	132
1760	126
1761	117
1762	139
1763	109
1764	120
1765	116
1766	116
1767	116
1768	126
1769	132
1770	133
1771	124
1772	130
1773	160
1774	220
1775	370
1776	989
1777	2559
1778	6262
1779	11249
1780	16730
1781	19441
1782	17710
1783	12687
1784	7026
1785	2977
1786	1002
1787	290
1788	154
1789	125
1790	95
1791	84
1792	103
1793	98
1794	85
1795	111
1796	77
1797	98
1798	97
1799	95
1800	92
1801	91
1802	81
1803	84
1804	91
1805	82
1806	91
1807	96
1808	120
1809	79
1810	91
1811	77
1812	98
1813	75
1814	73
1815	85
1816	95
1817	94
1818	89
1819	86
1820	98
1821	101
1822	88
1823	101
1824	87
1825	94
1826	98
1827	88
1828	68
1829	88
1830	100
1831	74
1832	83
1833	90
1834	95
1835	74
1836	89
1837	89
1838	92
1839	90
1840	85
1841	94
1842	74
1843	98
1844	83
1845	74
1846	84
1847	62
1848	88
1849	80
1850	80
1851	87
1852	101
1853	96
1854	85
1855	88
1856	78
1857	90
1858	103
1859	91
1860	74
1861	84
1862	88
1863	71
1864	98
1865	102
1866	73
1867	78
1868	90
1869	73
1870	65
1871	82
1872	84
1873	87
1874	95
1875	83
1876	96
1877	95
1878	89
1879	66
1880	94
1881	88
1882	93
1883	82
1884	78
1885	78
1886	96
1887	95
1888	89
1889	75
1890	80
1891	96
1892	86
1893	85
1894	87
1895	92
1896	84
1897	92
1898	85
1899	93
1900	94
1901	86
1902	78
1903	79
1904	86
1905	90
1906	94
1907	86
1908	98
1909	80
1910	86
1911	90
1912	81
1913	88
1914	88
1915	80
1916	96
1917	66
1918	97
1919	81
1920	86
1921	80
1922	85
1923	81
1924	82
1925	105
1926	79
1927	86
1928	78
1929	83
1930	77
1931	93
1932	90
1933	98
1934	94
1935	84
1936	80
1937	90
1938	100
1939	89
1940	99
1941	94
1942	90
1943	92
1944	81
1945	87
1946	77
1947	83
1948	83
1949	87
1950	97
1951	93
1952	76
1953	92
1954	88
1955	99
1956	68
1957	82
1958	89
1959	80
1960	82
1961	85
1962	86
1963	89
1964	82
1965	92
1966	103
1967	90
1968	67
1969	93
1970	96
1971	84
1972	99
1973	87
1974	93
1975	94
1976	83
1977	82
1978	85
1979	109
1980	104
1981	117
1982	73
1983	105
1984	98
1985	92
1986	108
1987	84
1988	89
1989	101
1990	93
1991	79
1992	68
1993	89
1994	81
1995	85
1996	99
1997	82
1998	85
1999	76
2000	83
2001	66
2002	88
2003	80
2004	94
2005	97
2006	83
2007	77
2008	92
2009	109
2010	96
2011	97
2012	76
2013	83
2014	78
2015	92
2016	88
2017	82
2018	93
2019	86
2020	64
2021	88
2022	83
2023	85
2024	87
2025	108
2026	76
2027	87
2028	94
2029	80
2030	94
2031	85
2032	106
2033	88
2034	100
2035	76
2036	79
2037	79
2038	77
2039	90
2040	101
2041	96
2042	83
2043	88
2044	87
2045	88
2046	94
2047	91
2048	90
2049	97
2050	93
2051	102
2052	86
2053	80
2054	89
2055	76
2056	104
2057	73
2058	85
2059	95
2060	84
2061	83
2062	79
2063	86
2064	90
2065	98
2066	112
2067	87
2068	101
2069	95
2070	88
2071	97
2072	85
2073	89
2074	81
2075	83
2076	97
2077	112
2078	98
2079	91
2080	96
2081	90
2082	78
2083	88
2084	92
2085	105
2086	95
2087	81
2088	107
2089	84
2090	83
2091	97
2092	95
2093	102
2094	109
2095	95
2096	87
2097	107
2098	102
2099	86
2100	88
2101	93
2102	112
2103	97
2104	101
2105	104
2106	108
2107	83
2108	108
2109	84
2110	90
2111	76
2112	95
2113	106
2114	107
2115	79
2116	80
2117	91
2118	83
2119	93
2120	91
2121	102
2122	96
2123	78
2124	80
2125	91
2126	85
2127	94
2128	94
2129	76
2130	99
2131	94
2132	81
2133	82
2134	89
2135	86
2136	75
2137	75
2138	88
2139	108
2140	85
2141	118
2142	89
2143	76
2144	80
2145	84
2146	89
2147	112
2148	92
2149	99
2150	102
2151	84
2152	107
2153	110
2154	92
2155	101
2156	90
2157	77
2158	83
2159	81
2160	95
2161	88
2162	95
2163	104
2164	86
2165	102
2166	110
2167	110
2168	89
2169	97
2170	95
2171	101
2172	79
2173	108
2174	101
2175	98
2176	119
2177	126
2178	104
2179	111
2180	93
2181	107
2182	97
2183	102
2184	100
2185	103
2186	101
2187	92
2188	101
2189	97
2190	94
2191	129
2192	107
2193	103
2194	131
2195	120
2196	131
2197	113
2198	125
2199	118
2200	81
2201	102
2202	94
2203	98
2204	107
2205	109
2206	103
2207	92
2208	95
2209	108
2210	103
2211	83
2212	92
2213	84
2214	99
2215	84
2216	83
2217	90
2218	104
2219	81
2220	89
2221	111
2222	109
2223	104
2224	88
2225	92
2226	87
2227	113
2228	116
2229	92
2230	105
2231	100
2232	99
2233	88
2234	102
2235	107
2236	108
2237	96
2238	111
2239	110
2240	102
2241	97
2242	107
2243	108
2244	90
2245	89
2246	107
2247	107
2248	103
2249	94
2250	107
2251	101
2252	96
2253	89
2254	106
2255	117
2256	89
2257	108
2258	100
2259	123
2260	101
2261	117
2262	105
2263	94
2264	105
2265	112
2266	101
2267	119
2268	101
2269	102
2270	102
2271	106
2272	110
2273	115
2274	112
2275	108
2276	96
2277	91
2278	120
2279	103
2280	121
2281	97
2282	115
2283	109
2284	81
2285	108
2286	108
2287	100
2288	118
2289	94
2290	103
2291	109
2292	109
2293	136
2294	134
2295	120
2296	116
2297	106
2298	92
2299	109
2300	115
2301	121
2302	109
2303	109
2304	113
2305	109
2306	84
2307	115
2308	119
2309	122
2310	115
2311	126
2312	98
2313	89
2314	115
2315	122
2316	107
2317	105
2318	111
2319	101
2320	109
2321	116
2322	95
2323	96
2324	106
2325	119
2326	120
2327	108
2328	109
2329	114
2330	122
2331	135
2332	127
2333	102
2334	104
2335	94
2336	125
2337	87
2338	112
2339	105
2340	108
2341	128
2342	118
2343	117
2344	110
2345	129
2346	127
2347	113
2348	125
2349	115
2350	115
2351	107
2352	112
2353	118
2354	132
2355	98
2356	116
2357	92
2358	109
2359	119
2360	122
2361	116
2362	104
2363	104
2364	114
2365	151
2366	100
2367	121
2368	112
2369	119
2370	120
2371	106
2372	106
2373	113
2374	136
2375	127
2376	122
2377	129
2378	136
2379	116
2380	119
2381	142
2382	135
2383	97
2384	121
2385	126
2386	109
2387	111
2388	119
2389	113
2390	123
2391	126
2392	121
2393	115
2394	114
2395	135
2396	128
2397	142
2398	129
2399	126
2400	133
2401	135
2402	119
2403	129
2404	139
2405	130
2406	118
2407	129
2408	136
2409	137
2410	128
2411	128
2412	119
2413	113
2414	113
2415	142
2416	126
2417	126
2418	143
2419	136
2420	115
2421	128
2422	115
2423	148
2424	138
2425	118
2426	123
2427	141
2428	109
2429	128
2430	127
2431	134
2432	163
2433	112
2434	118
2435	147
2436	109
2437	137
2438	114
2439	119
2440	133
2441	129
2442	126
2443	139
2444	141
2445	152
2446	149
2447	123
2448	113
2449	122
2450	139
2451	121
2452	127
2453	144
2454	133
2455	136
2456	125
2457	140
2458	143
2459	128
2460	138
2461	161
2462	160
2463	117
2464	137
2465	142
2466	116
2467	145
2468	147
2469	145
2470	144
2471	149
2472	133
2473	136
2474	130
2475	138
2476	153
2477	139
2478	143
2479	143
2480	130
2481	152
2482	112
2483	117
2484	143
2485	125
2486	132
2487	139
2488	135
2489	146
2490	137
2491	139
2492	133
2493	142
2494	144
2495	149
2496	144
2497	153
2498	150
2499	127
2500	149
2501	150
2502	141
2503	131
2504	147
2505	153
2506	136
2507	143
2508	159
2509	156
2510	158
2511	149
2512	152
2513	151
2514	126
2515	148
2516	136
2517	149
2518	145
2519	123
2520	142
2521	156
2522	155
2523	163
2524	158
2525	158
2526	155
2527	142
2528	147
2529	159
2530	148
2531	129
2532	146
2533	133
2534	151
2535	154
2536	167
2537	159
2538	176
2539	156
2540	143
2541	142
2542	160
2543	148
2544	175
2545	142
2546	156
2547	168
2548	136
2549	138
2550	146
2551	136
2552	148
2553	154
2554	143
2555	141
2556	161
2557	116
2558	157
2559	134
2560	139
2561	130
2562	135
2563	140
2564	126
2565	137
2566	123
2567	143
2568	139
2569	126
2570	115
2571	135
2572	124
2573	122
2574	123
2575	118
2576	132
2577	129
2578	143
2579	141
2580	131
2581	105
2582	132
2583	118
2584	90
2585	129
2586	126
2587	129
2588	125
2589	109
2590	108
2591	110
2592	131
2593	115
2594	108
2595	109
2596	108
2597	125
2598	131
2599	123
2600	121
2601	110
2602	117
2603	124
2604	128
2605	132
2606	100
2607	113
2608	109
2609	129
2610	127
2611	118
2612	138
2613	99
2614	113
2615	122
2616	105
2617	115
2618	110
2619	110
2620	103
2621	100
2622	98
2623	124
2624	114
2625	112
2626	99
2627	113
2628	91
2629	106
2630	119
2631	115
2632	109
2633	121
2634	108
2635	108
2636	107
2637	136
2638	127
2639	118
2640	106
2641	108
2642	113
2643	109
2644	110
2645	105
2646	92
2647	135
2648	94
2649	120
2650	99
2651	111
2652	123
2653	102
2654	134
2655	125
2656	106
2657	105
2658	106
2659	97
2660	104
2661	117
2662	112
2663	112
2664	103
2665	120
2666	111
2667	95
2668	116
2669	127
2670	118
2671	122
2672	113
2673	92
2674	101
2675	108
2676	111
2677	97
2678	110
2679	111
2680	81
2681	97
2682	109
2683	114
2684	92
2685	111
2686	119
2687	102
2688	113
2689	85
2690	108
2691	120
2692	119
2693	99
2694	106
2695	101
2696	117
2697	101
2698	98
2699	102
2700	111
2701	105
2702	114
2703	106
2704	101
2705	105
2706	115
2707	109
2708	128
2709	119
2710	104
2711	108
2712	115
2713	101
2714	93
2715	117
2716	125
2717	105
2718	97
2719	100
2720	105
2721	98
2722	90
2723	118
2724	106
2725	101
2726	105
2727	104
2728	112
2729	117
2730	83
2731	92
2732	102
2733	103
2734	105
2735	93
2736	112
2737	93
2738	99
2739	122
2740	101
2741	95
2742	92
2743	121
2744	104
2745	118
2746	99
2747	89
2748	133
2749	107
2750	101
2751	111
2752	119
2753	104
2754	94
2755	126
2756	106
2757	101
2758	103
2759	93
2760	88
2761	102
2762	120
2763	103
2764	117
2765	101
2766	129
2767	77
2768	118
2769	102
2770	118
2771	116
2772	112
2773	112
2774	86
2775	108
2776	110
2777	117
2778	117
2779	98
2780	96
2781	106
2782	132
2783	99
2784	101
2785	105
2786	105
2787	90
2788	106
2789	109
2790	103
2791	107
2792	103
2793	93
2794	103
2795	83
2796	105
2797	98
2798	105
2799	91
2800	94
2801	130
2802	122
2803	119
2804	101
2805	108
2806	80
2807	104
2808	104
2809	104
2810	119
2811	107
2812	103
2813	97
2814	109
2815	99
2816	96
2817	82
2818	110
2819	94
2820	99
2821	106
2822	85
2823	102
2824	109
2825	89
2826	108
2827	110
2828	76
2829	98
2830	96
2831	92
2832	93
2833	99
2834	112
2835	83
2836	102
2837	96
2838	100
2839	67
2840	80
2841	99
2842	77
2843	125
2844	85
2845	95
2846	109
2847	95
2848	87
2849	90
2850	99
2851	94
2852	102
2853	92
2854	94
2855	88
2856	95
2857	119
2858	90
2859	103
2860	85
2861	91
2862	107
2863	94
2864	109
2865	93
2866	78
2867	112
2868	98
2869	99
2870	97
2871	86
2872	108
2873	93
2874	102
2875	75
2876	123
2877	93
2878	96
2879	96
2880	104
2881	96
2882	101
2883	83
2884	80
2885	94
2886	99
2887	96
2888	97
2889	103
2890	100
2891	93
2892	102
2893	88
2894	104
2895	93
2896	82
2897	90
2898	96
2899	120
2900	87
2901	96
2902	97
2903	116
2904	123
2905	84
2906	121
2907	115
2908	97
2909	97
2910	99
2911	101
2912	117
2913	91
2914	112
2915	101
2916	90
2917	109
2918	102
2919	106
2920	112
2921	108
2922	110
2923	98
2924	92
2925	89
2926	94
2927	95
2928	110
2929	97
2930	107
2931	98
2932	102
2933	72
2934	126
2935	89
2936	89
2937	101
2938	101
2939	90
2940	98
2941	97
2942	95
2943	112
2944	98
2945	101
2946	98
2947	100
2948	118
2949	99
2950	103
2951	83
2952	112
2953	88
2954	91
2955	93
2956	88
2957	100
2958	73
2959	100
2960	105
2961	85
2962	78
2963	79
2964	75
2965	81
2966	83
2967	86
2968	84
2969	86
2970	79
2971	79
2972	90
2973	74
2974	80
2975	62
2976	74
2977	79
2978	73
2979	68
2980	58
2981	76
2982	71
2983	59
2984	70
2985	60
2986	75
2987	79
2988	72
2989	69
2990	60
2991	64
2992	73
2993	51
2994	52
2995	65
2996	48
2997	49
2998	73
2999	70
3000	65
3001	49
3002	46
3003	59
3004	58
3005	78
3006	60
3007	72
3008	59
3009	64
3010	58
3011	64
3012	56
3013	62
3014	65
3015	67
3016	55
3017	68
3018	66
3019	53
3020	57
3021	58
3022	64
3023	61
3024	64
3025	64
3026	53
3027	64
3028	62
3029	64
3030	65
3031	50
3032	63
3033	49
3034	44
3035	63
3036	55
3037	55
3038	55
3039	59
3040	70
3041	56
3042	51
3043	52
3044	55
3045	53
3046	55
3047	52
3048	63
3049	64
3050	61
3051	53
3052	50
3053	51
3054	41
3055	49
3056	51
3057	47
3058	57
3059	52
3060	48
3061	43
3062	56
3063	52
3064	42
3065	50
3066	52
3067	49
3068	51
3069	55
3070	61
3071	40
3072	55
3073	42
3074	47
3075	42
3076	46
3077	58
3078	51
3079	57
3080	57
3081	39
3082	64
3083	60
3084	51
3085	49
3086	54
3087	55
3088	62
3089	42
3090	39
3091	44
3092	53
3093	46
3094	39
3095	42
3096	52
3097	46
3098	65
3099	84
3100	163
3101	342
3102	805
3103	1671
3104	3007
3105	4471
3106	5577
3107	5782
3108	4713
3109	3287
3110	1844
3111	828
3112	300
3113	119
3114	69
3115	61
3116	47
3117	38
3118	39
3119	47
3120	31
3121	41
3122	38
3123	37
3124	54
3125	40
3126	35
3127	25
3128	29
3129	33
3130	40
3131	26
3132	42
3133	45
3134	31
3135	29
3136	34
3137	51
3138	28
3139	29
3140	30
3141	39
3142	30
3143	38
3144	46
3145	33
3146	28
3147	32
3148	33
3149	25
3150	29
3151	26
3152	30
3153	25
3154	31
3155	35
3156	28
3157	42
3158	22
3159	28
3160	38
3161	39
3162	19
3163	27
3164	25
3165	27
3166	50
3167	40
3168	28
3169	37
3170	27
3171	35
3172	22
3173	31
3174	25
3175	32
3176	24
3177	37
3178	21
3179	24
3180	30
3181	16
3182	22
3183	22
3184	28
3185	26
3186	22
3187	28
3188	13
3189	30
3190	28
3191	18
3192	24
3193	18
3194	21
3195	18
3196	15
3197	27
3198	25
3199	26
3200	33
3201	20
3202	25
3203	18
3204	27
3205	18
3206	21
3207	20
3208	26
3209	16
3210	20
3211	22
3212	20
3213	21
3214	25
3215	16
3216	25
3217	23
3218	30
3219	18
3220	20
3221	34
3222	25
3223	22
3224	19
3225	18
3226	12
3227	21
3228	20
3229	22
3230	20
3231	18
3232	10
3233	21
3234	14
3235	16
3236	14
3237	18
3238	12
3239	23
3240	23
3241	14
3242	17
3243	8
3244	20
3245	18
3246	22
3247	19
3248	10
3249	16
3250	17
3251	16
3252	19
3253	25
3254	14
3255	19
3256	18
3257	12
3258	16
3259	19
3260	16
3261	19
3262	19
3263	24
3264	20
3265	13
3266	14
3267	16
3268	16
3269	15
3270	16
3271	20
3272	10
3273	11
3274	9
3275	23
3276	18
3277	9
3278	15
3279	15
3280	19
3281	12
3282	13
3283	11
3284	15
3285	17
3286	7
3287	8
3288	9
3289	21
3290	15
3291	20
3292	21
3293	15
3294	13
3295	8
3296	13
3297	4
3298	11
3299	16
3300	13
3301	12
3302	11
3303	12
3304	18
3305	17
3306	20
3307	10
3308	8
3309	12
3310	13
3311	16
3312	12
3313	7
3314	9
3315	10
3316	11
3317	13
3318	10
3319	12
3320	9
3321	10
3322	10
3323	13
3324	6
3325	12
3326	15
3327	10
3328	13
3329	5
3330	13
3331	12
3332	10
3333	11
3334	11
3335	6
3336	12
3337	10
3338	15
3339	11
3340	12
3341	7
3342	8
3343	13
3344	13
3345	6
3346	11
3347	13
3348	9
3349	12
3350	13
3351	7
3352	8
3353	7
3354	9
3355	14
3356	8
3357	13
3358	12
3359	15
3360	11
3361	15
3362	26
3363	51
3364	118
3365	236
3366	420
3367	813
3368	1055
3369	1170
3370	1127
3371	866
3372	607
3373	319
3374	141
3375	52
3376	26
3377	28
3378	15
3379	12
3380	13
3381	15
3382	7
3383	6
3384	7
3385	9
3386	14
3387	7
3388	10
3389	12
3390	11
3391	14
3392	11
3393	19
3394	9
3395	7
3396	14
3397	11
3398	14
3399	8
3400	8
3401	8
3402	2
3403	14
3404	12
3405	8
3406	8
3407	6
3408	4
3409	12
3410	5
3411	12
3412	12
3413	9
3414	9
3415	7
3416	8
3417	6
3418	13
3419	6
3420	11
3421	11
3422	5
3423	9
3424	10
3425	5
3426	6
3427	4
3428	7
3429	13
3430	12
3431	8
3432	9
3433	9
3434	7
3435	7
3436	7
3437	7
3438	11
3439	11
3440	5
3441	7
3442	10
3443	13
3444	4
3445	9
3446	10
3447	13
3448	7
3449	12
3450	6
3451	11
3452	3
3453	9
3454	6
3455	12
3456	19
3457	7
3458	12
3459	10
3460	11
3461	9
3462	6
3463	8
3464	10
3465	4
3466	10
3467	10
3468	11
3469	9
3470	7
3471	7
3472	8
3473	16
3474	13
3475	9
3476	9
3477	9
3478	8
3479	11
3480	13
3481	5
3482	11
3483	10
3484	13
3485	6
3486	9
3487	8
3488	11
3489	11
3490	8
3491	9
3492	9
3493	14
3494	14
3495	11
3496	15
3497	9
3498	14
3499	10
3500	11
3501	13
3502	7
3503	17
3504	7
3505	14
3506	9
3507	13
3508	6
3509	19
3510	24
3511	27
3512	62
3513	136
3514	382
3515	867
3516	1766
3517	2971
3518	4250
3519	4837
3520	4842
3521	3943
3522	2585
3523	1505
3524	775
3525	265
3526	81
3527	27
3528	14
3529	9
3530	8
3531	5
3532	9
3533	8
3534	3
3535	9
3536	6
3537	10
3538	5
3539	2
3540	6
3541	3
3542	6
3543	3
3544	4
3545	6
3546	8
3547	5
3548	2
3549	11
3550	6
3551	6
3552	2
3553	6
3554	5
3555	2
3556	1
3557	2
3558	3
3559	5
3560	4
3561	0
3562	6
3563	5
3564	4
3565	3
3566	5
3567	2
3568	6
3569	5
3570	2
3571	3
3572	8
3573	5
3574	2
3575	6
3576	1
3577	3
3578	4
3579	2
3580	6
3581	1
3582	5
3583	2
3584	9
3585	4
3586	8
3587	6
3588	3
3589	2
3590	0
3591	1
3592	0
3593	7
3594	6
3595	6
3596	5
3597	2
3598	2
3599	3
3600	4
3601	3
3602	5
3603	4
3604	2
3605	2
3606	2
3607	7
3608	5
3609	4
3610	5
3611	6
3612	2
3613	2
3614	4
3615	2
3616	7
3617	2
3618	6
3619	2
3620	4
3621	2
3622	4
3623	5
3624	7
3625	3
3626	1
3627	3
3628	4
3629	4
3630	2
3631	4
3632	4
3633	2
3634	5
3635	3
3636	4
3637	4
3638	2
3639	3
3640	0
3641	3
3642	5
3643	6
3644	3
3645	3
3646	2
3647	3
3648	2
3649	6
3650	5
3651	0
3652	2
3653	5
3654	2
3655	2
3656	1
3657	5
3658	2
3659	5
3660	2
3661	3
3662	3
3663	3
3664	3
3665	2
3666	4
3667	3
3668	3
3669	1
3670	2
3671	3
3672	6
3673	4
3674	4
3675	3
3676	2
3677	1
3678	0
3679	3
3680	1
3681	6
3682	5
3683	1
3684	3
3685	7
3686	3
3687	2
3688	3
3689	4
3690	0
3691	6
3692	4
3693	5
3694	4
3695	2
3696	3
3697	3
3698	3
3699	5
3700	2
3701	4
3702	3
3703	3
3704	1
3705	4
3706	2
3707	1
3708	1
3709	3
3710	4
3711	3
3712	2
3713	2
3714	1
3715	3
3716	0
3717	1
3718	3
3719	1
3720	9
3721	2
3722	1
3723	2
3724	1
3725	3
3726	2
3727	4
3728	1
3729	1
3730	6
3731	6
3732	1
3733	2
3734	1
3735	4
3736	3
3737	6
3738	1
3739	6
3740	2
3741	1
3742	1
3743	3
3744	1
3745	5
3746	7
3747	2
3748	4
3749	4
3750	1
3751	1
3752	4
3753	3
3754	2
3755	0
3756	2
3757	5
3758	2
3759	3
3760	0
3761	7
3762	3
3763	2
3764	2
3765	2
3766	1
3767	7
3768	0
3769	3
3770	2
3771	2
3772	5
3773	3
3774	3
3775	1
3776	2
3777	3
3778	4
3779	1
3780	4
3781	2
3782	2
3783	4
3784	4
3785	3
3786	0
3787	4
3788	3
3789	3
3790	3
3791	0
3792	4
3793	1
3794	3
3795	2
3796	2
3797	2
3798	2
3799	8
3800	4
3801	4
3802	2
3803	2
3804	0
3805	1
3806	7
3807	1
3808	4
3809	2
3810	1
3811	0
3812	1
3813	3
3814	5
3815	4
3816	1
3817	3
3818	4
3819	5
3820	4
3821	2
3822	4
3823	3
3824	4
3825	1
3826	1
3827	2
3828	0
3829	6
3830	2
3831	3
3832	2
3833	2
3834	1
3835	5
3836	4
3837	1
3838	4
3839	3
3840	1
3841	2
3842	3
3843	1
3844	2
3845	2
3846	4
3847	1
3848	2
3849	0
3850	2
3851	3
3852	4
3853	2
3854	5
3855	3
3856	2
3857	3
3858	6
3859	3
3860	5
3861	3
3862	0
3863	3
3864	2
3865	2
3866	3
3867	1
3868	1
3869	2
3870	4
3871	1
3872	3
3873	4
3874	2
3875	2
3876	2
3877	0
3878	2
3879	3
3880	3
3881	0
3882	2
3883	7
3884	3
3885	4
3886	0
3887	1
3888	1
3889	0
3890	2
3891	1
3892	5
3893	6
3894	3
3895	3
3896	2
3897	1
3898	2
3899	2
3900	4
3901	1
3902	4
3903	1
3904	2
3905	0
3906	2
3907	4
3908	2
3909	4
3910	1
3911	2
3912	3
3913	1
3914	4
3915	4
3916	4
3917	2
3918	3
3919	2
3920	0
3921	5
3922	3
3923	1
3924	3
3925	0
3926	2
3927	2
3928	5
3929	2
3930	1
3931	0
3932	0
3933	4
3934	0
3935	4
3936	6
3937	2
3938	5
3939	1
3940	4
3941	5
3942	0
3943	2
3944	5
3945	3
3946	1
3947	3
3948	4
3949	1
3950	3
3951	3
3952	2
3953	1
3954	3
3955	2
3956	0
3957	1
3958	5
3959	3
3960	3
3961	2
3962	2
3963	2
3964	3
3965	4
3966	5
3967	2
3968	6
3969	3
3970	1
3971	3
3972	2
3973	0
3974	0
3975	1
3976	3
3977	1
3978	1
3979	3
3980	3
3981	2
3982	6
3983	1
3984	4
3985	5
3986	1
3987	2
3988	2
3989	1
3990	2
3991	0
3992	1
3993	2
3994	2
3995	2
3996	0
3997	1
3998	3
3999	2
4000	1
4001	3
4002	4
4003	1
4004	3
4005	3
4006	0
4007	4
4008	2
4009	1
4010	2
4011	2
4012	3
4013	2
4014	4
4015	1
4016	5
4017	4
4018	2
4019	0
4020	2
4021	3
4022	5
4023	2
4024	1
4025	1
4026	3
4027	0
4028	0
4029	3
4030	1
4031	4
4032	3
4033	3
4034	2
4035	1
4036	3
4037	2
4038	2
4039	1
4040	4
4041	2
4042	0
4043	4
4044	4
4045	2
4046	1
4047	2
4048	3
4049	1
4050	3
4051	3
4052	2
4053	3
4054	2
4055	1
4056	6
4057	0
4058	3
4059	3
4060	3
4061	2
4062	1
4063	3
4064	3
4065	1
4066	3
4067	0
4068	1
4069	4
4070	1
4071	2
4072	0
4073	4
4074	1
4075	1
4076	3
4077	6
4078	3
4079	2
4080	2
4081	2
4082	4
4083	3
4084	2
4085	1
4086	2
4087	4
4088	2
4089	3
4090	5
4091	1
4092	1
4093	4
4094	2
4095	2
4096	1
4097	2
4098	2
4099	0
4100	6
4101	3
4102	4
4103	2
4104	4
4105	0
4106	3
4107	6
4108	3
4109	1
4110	0
4111	2
4112	1
4113	1
4114	0
4115	1
4116	2
4117	4
4118	4
4119	0
4120	5
4121	5
4122	1
4123	4
4124	2
4125	2
4126	1
4127	1
4128	1
4129	2
4130	3
4131	2
4132	0
4133	1
4134	1
4135	3
4136	1
4137	5
4138	4
4139	2
4140	4
4141	5
4142	1
4143	2
4144	4
4145	4
4146	0
4147	4
4148	2
4149	1
4150	4
4151	2
4152	2
4153	1
4154	2
4155	1
4156	1
4157	4
4158	2
4159	3
4160	2
4161	0
4162	1
4163	1
4164	4
4165	0
4166	2
4167	0
4168	1
4169	3
4170	1
4171	2
4172	0
4173	3
4174	2
4175	2
4176	4
4177	1
4178	3
4179	2
4180	3
4181	2
4182	2
4183	4
4184	2
4185	3
4186	0
4187	4
4188	1
4189	3
4190	1
4191	3
4192	0
4193	7
4194	3
4195	3
4196	2
4197	1
4198	0
4199	0
4200	2
4201	1
4202	2
4203	4
4204	1
4205	1
4206	1
4207	0
4208	2
4209	0
4210	2
4211	4
4212	2
4213	2
4214	2
4215	2
4216	0
4217	2
4218	1
4219	2
4220	0
4221	3
4222	6
4223	0
4224	4
4225	1
4226	3
4227	2
4228	5
4229	3
4230	4
4231	2
4232	2
4233	2
4234	2
4235	3
4236	4
4237	1
4238	3
4239	1
4240	2
4241	1
4242	3
4243	3
4244	1
4245	3
4246	2
4247	2
4248	1
4249	2
4250	1
4251	3
4252	0
4253	2
4254	3
4255	3
4256	3
4257	1
4258	1
4259	2
4260	3
4261	3
4262	3
4263	1
4264	1
4265	1
4266	3
4267	0
4268	2
4269	0
4270	1
4271	1
4272	2
4273	2
4274	2
4275	4
4276	0
4277	1
4278	1
4279	1
4280	2
4281	1
4282	3
4283	2
4284	1
4285	0
4286	3
4287	0
4288	1
4289	2
4290	2
4291	1
4292	2
4293	1
4294	2
4295	2
4296	2
4297	3
4298	1
4299	0
4300	1
4301	2
4302	2
4303	3
4304	2
4305	1
4306	2
4307	1
4308	1
4309	1
4310	1
4311	2
4312	0
4313	0
4314	1
4315	1
4316	3
4317	1
4318	0
4319	0
4320	1
4321	3
4322	1
4323	2
4324	1
4325	1
4326	3
4327	1
4328	1
4329	2
4330	2
4331	1
4332	0
4333	3
4334	1
4335	2
4336	0
4337	0
4338	1
4339	0
4340	3
4341	1
4342	2
4343	0
4344	1
4345	0
4346	1
4347	0
4348	2
4349	2
4350	3
4351	2
4352	2
4353	1
4354	0
4355	0
4356	1
4357	1
4358	0
4359	1
4360	0
4361	2
4362	4
4363	0
4364	2
4365	1
4366	1
4367	1
4368	2
4369	0
4370	3
4371	4
4372	3
4373	2
4374	3
4375	0
4376	2
4377	0
4378	2
4379	0
4380	1
4381	0
4382	3
4383	0
4384	2
4385	3
4386	0
4387	1
4388	1
4389	3
4390	3
4391	3
4392	2
4393	2
4394	1
4395	2
4396	0
4397	2
4398	0
4399	1
4400	2
4401	0
4402	2
4403	2
4404	0
4405	1
4406	0
4407	0
4408	1
4409	1
4410	2
4411	1
4412	0
4413	1
4414	1
4415	2
4416	0
4417	2
4418	1
4419	0
4420	2
4421	3
4422	1
4423	4
4424	3
4425	0
4426	2
4427	2
4428	1
4429	1
4430	0
4431	2
4432	1
4433	1
4434	1
4435	1
4436	0
4437	1
4438	1
4439	1
4440	0
4441	2
4442	3
4443	1
4444	2
4445	1
4446	2
4447	0
4448	1
4449	0
4450	1
4451	0
4452	1
4453	1
4454	3
4455	0
4456	0
4457	1
4458	1
4459	1
4460	4
4461	1
4462	1
4463	1
4464	0
4465	1
4466	2
4467	2
4468	1
4469	2
4470	0
4471	2
4472	0
4473	3
4474	1
4475	3
4476	1
4477	2
4478	0
4479	1
4480	1
4481	3
4482	2
4483	1
4484	1
4485	0
4486	0
4487	0
4488	4
4489	2
4490	0
4491	5
4492	1
4493	2
4494	1
4495	0
4496	1
4497	0
4498	0
4499	0
4500	1
4501	2
4502	2
4503	1
4504	0
4505	1
4506	0
4507	1
4508	3
4509	2
4510	1
4511	2
4512	6
4513	1
4514	0
4515	0
4516	2
4517	1
4518	2
4519	4
4520	1
4521	0
4522	0
4523	3
4524	3
4525	0
4526	0
4527	0
4528	0
4529	2
4530	1
4531	3
4532	0
4533	2
4534	1
4535	1
4536	0
4537	1
4538	0
4539	0
4540	0
4541	2
4542	0
4543	1
4544	0
4545	3
4546	0
4547	0
4548	0
4549	1
4550	0
4551	1
4552	0
4553	1
4554	5
4555	1
4556	3
4557	1
4558	0
4559	3
4560	1
4561	3
4562	1
4563	0
4564	4
4565	0
4566	0
4567	3
4568	0
4569	1
4570	2
4571	1
4572	3
4573	1
4574	0
4575	0
4576	1
4577	2
4578	2
4579	1
4580	1
4581	1
4582	1
4583	1
4584	1
4585	0
4586	2
4587	3
4588	1
4589	1
4590	0
4591	2
4592	1
4593	1
4594	0
4595	1
4596	2
4597	4
4598	1
4599	2
4600	1
4601	2
4602	1
4603	1
4604	0
4605	2
4606	0
4607	1
4608	1
4609	0
4610	0
4611	0
4612	3
4613	4
4614	0
4615	0
4616	1
4617	0
4618	2
4619	1
4620	1
4621	0
4622	1
4623	0
4624	1
4625	1
4626	2
4627	2
4628	4
4629	1
4630	0
4631	1
4632	3
4633	1
4634	1
4635	0
4636	1
4637	1
4638	2
4639	4
4640	0
4641	0
4642	0
4643	1
4644	0
4645	0
4646	3
4647	2
4648	0
4649	0
4650	0
4651	3
4652	1
4653	3
4654	0
4655	0
4656	0
4657	3
4658	2
4659	0
4660	1
4661	1
4662	0
4663	1
4664	2
4665	0
4666	1
4667	1
4668	3
4669	2
4670	1
4671	0
4672	1
4673	2
4674	0
4675	0
4676	3
4677	1
4678	0
4679	1
4680	1
4681	1
4682	3
4683	1
4684	2
4685	2
4686	3
4687	5
4688	4
4689	10
4690	7
4691	13
4692	9
4693	10
4694	8
4695	13
4696	9
4697	11
4698	8
4699	9
4700	3
4701	0
4702	1
4703	0
4704	0
4705	1
4706	2
4707	1
4708	0
4709	2
4710	1
4711	2
4712	1
4713	1
4714	4
4715	4
4716	0
4717	2
4718	1
4719	1
4720	2
4721	3
4722	1
4723	3
4724	2
4725	1
4726	0
4727	1
4728	2
4729	1
4730	1
4731	1
4732	1
4733	1
4734	1
4735	0
4736	0
4737	0
4738	0
4739	2
4740	0
4741	1
4742	0
4743	1
4744	0
4745	1
4746	0
4747	1
4748	0
4749	1
4750	1
4751	1
4752	0
4753	0
4754	0
4755	1
4756	3
4757	3
4758	1
4759	1
4760	1
4761	3
4762	1
4763	1
4764	0
4765	1
4766	2
4767	4
4768	0
4769	0
4770	0
4771	1
4772	3
4773	3
4774	3
4775	1
4776	1
4777	0
4778	2
4779	0
4780	1
4781	2
4782	0
4783	2
4784	2
4785	0
4786	1
4787	1
4788	0
4789	0
4790	1
4791	2
4792	1
4793	1
4794	4
4795	1
4796	0
4797	1
4798	1
4799	1
4800	1
4801	1
4802	0
4803	2
4804	2
4805	0
4806	0
4807	0
4808	0
4809	3
4810	0
4811	1
4812	0
4813	1
4814	1
4815	1
4816	0
4817	2
4818	0
4819	1
4820	1
4821	1
4822	4
4823	0
4824	1
4825	1
4826	4
4827	0
4828	1
4829	0
4830	1
4831	2
4832	1
4833	0
4834	2
4835	1
4836	2
4837	0
4838	1
4839	3
4840	2
4841	1
4842	2
4843	2
4844	0
4845	1
4846	1
4847	1
4848	0
4849	0
4850	2
4851	0
4852	2
4853	0
4854	0
4855	3
4856	1
4857	1
4858	1
4859	1
4860	1
4861	2
4862	0
4863	0
4864	1
4865	1
4866	1
4867	2
4868	0
4869	0
4870	2
4871	1
4872	0
4873	1
4874	1
4875	2
4876	1
4877	1
4878	0
4879	0
4880	1
4881	0
4882	0
4883	0
4884	0
4885	2
4886	2
4887	0
4888	1
4889	1
4890	0
4891	2
4892	1
4893	2
4894	0
4895	0
4896	0
4897	1
4898	1
4899	0
4900	1
4901	0
4902	1
4903	0
4904	3
4905	1
4906	0
4907	2
4908	0
4909	0
4910	0
4911	0
4912	0
4913	0
4914	2
4915	0
4916	2
4917	0
4918	1
4919	5
4920	1
4921	2
4922	1
4923	0
4924	2
4925	1
4926	1
4927	1
4928	1
4929	0
4930	1
4931	2
4932	3
4933	0
4934	3
4935	1
4936	1
4937	1
4938	1
4939	1
4940	0
4941	1
4942	1
4943	0
4944	0
4945	0
4946	0
4947	3
4948	1
4949	0
4950	1
4951	1
4952	1
4953	2
4954	2
4955	0
4956	1
4957	1
4958	0
4959	2
4960	2
4961	2
4962	0
4963	1
4964	3
4965	2
4966	1
4967	2
4968	2
4969	2
4970	1
4971	2
4972	2
4973	0
4974	1
4975	2
4976	0
4977	1
4978	0
4979	1
4980	1
4981	1
4982	1
4983	1
4984	1
4985	0
4986	3
4987	3
4988	3
4989	0
4990	2
4991	2
4992	1
4993	1
4994	0
4995	3
4996	2
4997	2
4998	0
4999	2
5000	1
5001	3
5002	1
5003	3
5004	3
5005	2
5006	4
5007	1
5008	0
5009	1
5010	4
5011	0
5012	2
5013	1
5014	1
5015	2
5016	1
5017	0
5018	0
5019	1
5020	1
5021	0
5022	0
5023	0
5024	1
5025	1
5026	1
5027	1
5028	1
5029	1
5030	2
5031	0
5032	0
5033	1
5034	0
5035	0
5036	1
5037	1
5038	1
5039	1
5040	2
5041	2
5042	1
5043	2
5044	0
5045	1
5046	0
5047	1
5048	2
5049	0
5050	2
5051	1
5052	0
5053	2
5054	1
5055	1
5056	2
5057	0
5058	2
5059	1
5060	0
5061	1
5062	0
5063	3
5064	1
5065	0
5066	1
5067	0
5068	0
5069	2
5070	1
5071	0
5072	1
5073	1
5074	2
5075	2
5076	2
5077	1
5078	0
5079	1
5080	1
5081	1
5082	3
5083	0
5084	0
5085	2
5086	1
5087	1
5088	1
5089	3
5090	2
5091	0
5092	0
5093	1
5094	0
5095	0
5096	1
5097	1
5098	3
5099	2
5100	0
5101	2
5102	2
5103	2
5104	0
5105	0
5106	2
5107	1
5108	0
5109	0
5110	2
5111	1
5112	2
5113	2
5114	1
5115	0
5116	1
5117	3
5118	0
5119	0
5120	0
5121	2
5122	1
5123	0
5124	1
5125	2
5126	2
5127	0
5128	1
5129	1
5130	1
5131	4
5132	1
5133	0
5134	1
5135	2
5136	0
5137	1
5138	0
5139	0
5140	2
5141	0
5142	0
5143	0
5144	1
5145	0
5146	1
5147	0
5148	1
5149	3
5150	1
5151	0
5152	1
5153	1
5154	2
5155	0
5156	1
5157	1
5158	1
5159	2
5160	0
5161	0
5162	0
5163	0
5164	2
5165	0
5166	0
5167	1
5168	0
5169	1
5170	0
5171	1
5172	1
5173	0
5174	1
5175	1
5176	0
5177	0
5178	0
5179	0
5180	0
5181	1
5182	0
5183	1
5184	2
5185	1
5186	1
5187	1
5188	0
5189	3
5190	0
5191	1
5192	2
5193	0
5194	2
5195	3
5196	1
5197	1
5198	1
5199	0
5200	2
5201	1
5202	2
5203	3
5204	2
5205	1
5206	1
5207	0
5208	0
5209	2
5210	0
5211	0
5212	0
5213	0
5214	2
5215	0
5216	0
5217	0
5218	1
5219	2
5220	0
5221	1
5222	2
5223	1
5224	0
5225	1
5226	4
5227	4
5228	1
5229	0
5230	2
5231	2
5232	4
5233	4
5234	3
5235	1
5236	1
5237	0
5238	0
5239	2
5240	2
5241	0
5242	1
5243	2
5244	0
5245	0
5246	1
5247	2
5248	1
5249	2
5250	1
5251	1
5252	2
5253	1
5254	0
5255	0
5256	2
5257	1
5258	4
5259	0
5260	0
5261	3
5262	1
5263	0
5264	1
5265	3
5266	0
5267	0
5268	1
5269	1
5270	0
5271	0
5272	1
5273	0
5274	0
5275	0
5276	0
5277	1
5278	1
5279	3
5280	0
5281	0
5282	0
5283	1
5284	2
5285	2
5286	2
5287	1
5288	0
5289	2
5290	1
5291	1
5292	0
5293	0
5294	3
5295	1
5296	0
5297	1
5298	1
5299	0
5300	0
5301	0
5302	0
5303	2
5304	0
5305	0
5306	0
5307	0
5308	0
5309	0
5310	0
5311	2
5312	0
5313	1
5314	3
5315	0
5316	3
5317	1
5318	0
5319	0
5320	0
5321	1
5322	2
5323	0
5324	2
5325	2
5326	0
5327	1
5328	1
5329	1
5330	0
5331	1
5332	3
5333	0
5334	1
5335	1
5336	2
5337	3
5338	0
5339	0
5340	1
5341	1
5342	0
5343	1
5344	0
5345	0
5346	1
5347	0
5348	0
5349	0
5350	0
5351	4
5352	0
5353	2
5354	1
5355	0
5356	2
5357	0
5358	1
5359	0
5360	1
5361	1
5362	1
5363	1
5364	2
5365	0
5366	2
5367	2
5368	1
5369	1
5370	0
5371	0
5372	3
5373	0
5374	2
5375	2
5376	0
5377	1
5378	0
5379	1
5380	1
5381	1
5382	0
5383	0
5384	1
5385	0
5386	0
5387	1
5388	1
5389	0
5390	1
5391	1
5392	0
5393	1
5394	1
5395	2
5396	1
5397	0
5398	0
5399	1
5400	0
5401	0
5402	1
5403	1
5404	1
5405	2
5406	1
5407	0
5408	1
5409	1
5410	1
5411	0
5412	1
5413	1
5414	1
5415	1
5416	0
5417	1
5418	1
5419	2
5420	0
5421	0
5422	0
5423	0
5424	0
5425	1
5426	1
5427	0
5428	0
5429	0
5430	2
5431	1
5432	2
5433	1
5434	0
5435	1
5436	0
5437	2
5438	2
5439	0
5440	0
5441	0
5442	0
5443	3
5444	1
5445	1
5446	1
5447	1
5448	1
5449	0
5450	2
5451	2
5452	0
5453	0
5454	1
5455	2
5456	0
5457	1
5458	1
5459	0
5460	1
5461	2
5462	0
5463	0
5464	0
5465	0
5466	1
5467	0
5468	2
5469	0
5470	0
5471	0
5472	2
5473	1
5474	0
5475	1
5476	1
5477	3
5478	0
5479	0
5480	0
5481	1
5482	0
5483	0
5484	0
5485	0
5486	0
5487	1
5488	1
5489	0
5490	0
5491	0
5492	0
5493	1
5494	0
5495	1
5496	0
5497	0
5498	1
5499	1
5500	1
5501	2
5502	0
5503	0
5504	2
5505	0
5506	3
5507	0
5508	0
5509	3
5510	2
5511	0
5512	2
5513	0
5514	1
5515	1
5516	1
5517	2
5518	1
5519	2
5520	1
5521	0
5522	1
5523	0
5524	2
5525	0
5526	1
5527	2
5528	0
5529	1
5530	2
5531	0
5532	3
5533	1
5534	0
5535	0
5536	0
5537	0
5538	2
5539	2
5540	0
5541	0
5542	0
5543	3
5544	2
5545	0
5546	0
5547	1
5548	0
5549	0
5550	1
5551	1
5552	2
5553	0
5554	0
5555	0
5556	0
5557	0
5558	0
5559	0
5560	1
5561	0
5562	1
5563	0
5564	0
5565	1
5566	0
5567	1
5568	0
5569	1
5570	0
5571	2
5572	1
5573	0
5574	1
5575	0
5576	0
5577	0
5578	0
5579	1
5580	0
5581	1
5582	1
5583	0
5584	0
5585	2
5586	0
5587	1
5588	0
5589	0
5590	0
5591	1
5592	1
5593	1
5594	0
5595	0
5596	1
5597	1
5598	0
5599	0
5600	0
5601	0
5602	2
5603	0
5604	0
5605	1
5606	1
5607	0
5608	0
5609	1
5610	1
5611	0
5612	1
5613	0
5614	1
5615	0
5616	0
5617	0
5618	1
5619	2
5620	0
5621	0
5622	1
5623	1
5624	2
5625	0
5626	2
5627	3
5628	0
5629	0
5630	1
5631	0
5632	0
5633	3
5634	0
5635	2
5636	1
5637	1
5638	0
5639	0
5640	1
5641	0
5642	2
5643	0
5644	0
5645	0
5646	1
5647	1
5648	2
5649	1
5650	0
5651	3
5652	1
5653	0
5654	0
5655	0
5656	1
5657	1
5658	0
5659	0
5660	2
5661	1
5662	1
5663	0
5664	0
5665	1
5666	1
5667	2
5668	2
5669	1
5670	0
5671	0
5672	2
5673	1
5674	1
5675	1
5676	2
5677	1
5678	1
5679	0
5680	0
5681	1
5682	0
5683	0
5684	0
5685	1
5686	2
5687	1
5688	0
5689	2
5690	2
5691	1
5692	0
5693	0
5694	1
5695	2
5696	2
5697	3
5698	1
5699	0
5700	0
5701	4
5702	2
5703	2
5704	1
5705	0
5706	0
5707	0
5708	2
5709	1
5710	0
5711	0
5712	1
5713	0
5714	2
5715	0
5716	1
5717	2
5718	2
5719	0
5720	1
5721	0
5722	0
5723	1
5724	3
5725	0
5726	0
5727	0
5728	1
5729	1
5730	1
5731	1
5732	3
5733	0
5734	2
5735	1
5736	0
5737	0
5738	0
5739	1
5740	3
5741	0
5742	0
5743	1
5744	0
5745	0
5746	1
5747	1
5748	0
5749	0
5750	2
5751	0
5752	2
5753	0
5754	0
5755	2
5756	1
5757	2
5758	0
5759	0
5760	0
5761	0
5762	0
5763	1
5764	0
5765	0
5766	1
5767	0
5768	0
5769	0
5770	1
5771	0
5772	0
5773	0
5774	1
5775	1
5776	0
5777	1
5778	0
5779	2
5780	5
5781	1
5782	1
5783	0
5784	2
5785	1
5786	1
5787	0
5788	1
5789	0
5790	0
5791	0
5792	0
5793	1
5794	1
5795	0
5796	0
5797	0
5798	1
5799	0
5800	1
5801	2
5802	3
5803	1
5804	1
5805	0
5806	1
5807	1
5808	3
5809	2
5810	3
5811	1
5812	0
5813	1
5814	1
5815	2
5816	2
5817	2
5818	0
5819	0
5820	1
5821	1
5822	1
5823	0
5824	1
5825	0
5826	1
5827	3
5828	0
5829	0
5830	1
5831	0
5832	0
5833	2
5834	0
5835	0
5836	0
5837	0
5838	0
5839	0
5840	0
5841	1
5842	0
5843	1
5844	0
5845	0
5846	2
5847	0
5848	1
5849	0
5850	0
5851	0
5852	0
5853	0
5854	0
5855	1
5856	0
5857	1
5858	0
5859	1
5860	4
5861	1
5862	0
5863	1
5864	0
5865	2
5866	1
5867	2
5868	0
5869	1
5870	1
5871	2
5872	0
5873	3
5874	3
5875	0
5876	1
5877	1
5878	2
5879	1
5880	1
5881	0
5882	0
5883	0
5884	0
5885	1
5886	2
5887	0
5888	2
5889	1
5890	0
5891	1
5892	2
5893	1
5894	1
5895	1
5896	1
5897	1
5898	1
5899	1
5900	1
5901	2
5902	1
5903	1
5904	2
5905	0
5906	1
5907	1
5908	1
5909	1
5910	4
5911	1
5912	0
5913	1
5914	0
5915	1
5916	0
5917	0
5918	0
5919	2
5920	0
5921	1
5922	2
5923	1
5924	4
5925	2
5926	2
5927	0
5928	2
5929	1
5930	2
5931	2
5932	0
5933	1
5934	2
5935	0
5936	1
5937	0
5938	1
5939	1
5940	1
5941	2
5942	0
5943	0
5944	2
5945	0
5946	3
5947	2
5948	0
5949	1
5950	0
5951	0
5952	2
5953	1
5954	2
5955	1
5956	1
5957	1
5958	2
5959	2
5960	0
5961	2
5962	2
5963	2
5964	0
5965	1
5966	2
5967	0
5968	1
5969	0
5970	2
5971	1
5972	0
5973	4
5974	1
5975	1
5976	2
5977	2
5978	2
5979	0
5980	0
5981	2
5982	1
5983	0
5984	1
5985	2
5986	1
5987	2
5988	0
5989	1
5990	2
5991	0
5992	1
5993	1
5994	0
5995	0
5996	1
5997	0
5998	1
5999	1
6000	2
6001	0
6002	1
6003	4
6004	1
6005	3
6006	1
6007	0
6008	0
6009	1
6010	0
6011	1
6012	0
6013	0
6014	0
6015	2
6016	1
6017	0
6018	2
6019	0
6020	0
6021	0
6022	0
6023	2
6024	2
6025	2
6026	3
6027	0
6028	2
6029	0
6030	1
6031	0
6032	1
6033	1
6034	0
6035	0
6036	1
6037	4
6038	1
6039	1
6040	1
6041	1
6042	0
6043	0
6044	0
6045	2
6046	0
6047	1
6048	1
6049	1
6050	0
6051	1
6052	1
6053	1
6054	3
6055	0
6056	1
6057	0
6058	0
6059	1
6060	0
6061	2
6062	0
6063	1
6064	0
6065	1
6066	1
6067	0
6068	2
6069	0
6070	0
6071	0
6072	0
6073	1
6074	1
6075	0
6076	1
6077	0
6078	2
6079	1
6080	0
6081	1
6082	1
6083	0
6084	0
6085	0
6086	0
6087	1
6088	1
6089	1
6090	0
6091	0
6092	1
6093	1
6094	0
6095	1
6096	0
6097	1
6098	1
6099	0
6100	0
6101	1
6102	0
6103	1
6104	2
6105	0
6106	2
6107	0
6108	2
6109	0
6110	2
6111	1
6112	0
6113	0
6114	1
6115	1
6116	0
6117	0
6118	1
6119	0
6120	0
6121	1
6122	1
6123	0
6124	1
6125	0
6126	0
6127	0
6128	0
6129	0
6130	0
6131	0
6132	3
6133	1
6134	1
6135	0
6136	1
6137	0
6138	1
6139	1
6140	1
6141	0
6142	0
6143	0
6144	1
6145	0
6146	0
6147	1
6148	0
6149	0
6150	1
6151	1
6152	0
6153	0
6154	1
6155	0
6156	0
6157	0
6158	0
6159	1
6160	0
6161	0
6162	0
6163	0
6164	0
6165	0
6166	0
6167	1
6168	0
6169	0
6170	1
6171	0
6172	1
6173	1
6174	1
6175	0
6176	1
6177	1
6178	0
6179	0
6180	2
6181	0
6182	1
6183	0
6184	0
6185	0
6186	0
6187	0
6188	1
6189	0
6190	0
6191	0
6192	1
6193	0
6194	0
6195	0
6196	0
6197	0
6198	2
6199	0
6200	0
6201	0
6202	1
6203	0
6204	0
6205	0
6206	1
6207	0
6208	0
6209	0
6210	0
6211	1
6212	1
6213	0
6214	2
6215	1
6216	0
6217	1
6218	0
6219	1
6220	1
6221	1
6222	0
6223	1
6224	0
6225	0
6226	1
6227	0
6228	1
6229	1
6230	0
6231	0
6232	1
6233	1
6234	0
6235	0
6236	1
6237	0
6238	0
6239	0
6240	2
6241	0
6242	0
6243	0
6244	1
6245	1
6246	0
6247	0
6248	0
6249	0
6250	2
6251	0
6252	0
6253	0
6254	0
6255	0
6256	0
6257	0
6258	0
6259	0
6260	0
6261	0
6262	0
6263	0
6264	0
6265	1
6266	0
6267	1
6268	0
6269	0
6270	0
6271	0
6272	2
6273	1
6274	0
6275	0
6276	0
6277	1
6278	0
6279	0
6280	0
6281	0
6282	1
6283	1
6284	0
6285	0
6286	0
6287	0
6288	0
6289	0
6290	0
6291	0
6292	0
6293	1
6294	2
6295	0
6296	0
6297	0
6298	0
6299	0
6300	0
6301	0
6302	0
6303	0
6304	0
6305	0
6306	0
6307	0
6308	0
6309	0
6310	0
6311	0
6312	0
6313	0
6314	0
6315	0
6316	0
6317	0
6318	0
6319	0
6320	0
6321	0
6322	0
6323	0
6324	0
6325	0
6326	0
6327	0
6328	1
6329	0
6330	0
6331	0
6332	0
6333	0
6334	1
6335	0
6336	1
6337	0
6338	1
6339	0
6340	0
6341	0
6342	1
6343	0
6344	1
6345	0
6346	0
6347	0
6348	0
6349	0
6350	0
6351	0
6352	0
6353	0
6354	0
6355	0
6356	0
6357	1
6358	0
6359	0
6360	1
6361	1
6362	0
6363	1
6364	0
6365	0
6366	0
6367	0
6368	0
6369	1
6370	0
6371	0
6372	0
6373	0
6374	0
6375	0
6376	0
6377	1
6378	0
6379	0
6380	1
6381	0
6382	0
6383	1
6384	1
6385	1
6386	0
6387	0
6388	1
6389	0
6390	0
6391	0
6392	0
6393	0
6394	1
6395	1
6396	2
6397	0
6398	0
6399	0
6400	0
6401	0
6402	0
6403	1
6404	1
6405	0
6406	0
6407	0
6408	0
6409	1
6410	0
6411	0
6412	0
6413	0
6414	0
6415	0
6416	0
6417	0
6418	0
6419	1
6420	2
6421	1
6422	1
6423	0
6424	0
6425	0
6426	0
6427	0
6428	1
6429	0
6430	1
6431	0
6432	0
6433	1
6434	0
6435	1
6436	0
6437	0
6438	0
6439	0
6440	0
6441	1
6442	0
6443	0
6444	0
6445	0
6446	0
6447	0
6448	0
6449	0
6450	0
6451	0
6452	0
6453	0
6454	0
6455	0
6456	1
6457	0
6458	0
6459	2
6460	0
6461	0
6462	0
6463	0
6464	0
6465	0
6466	0
6467	0
6468	0
6469	0
6470	0
6471	0
6472	0
6473	0
6474	0
6475	0
6476	1
6477	0
6478	0
6479	0
6480	1
6481	0
6482	0
6483	1
6484	0
6485	0
6486	0
6487	0
6488	0
6489	0
6490	0
6491	0
6492	0
6493	0
6494	0
6495	0
6496	0
6497	1
6498	0
6499	0
6500	0
6501	0
6502	0
6503	0
6504	0
6505	0
6506	0
6507	0
6508	0
6509	0
6510	0
6511	0
6512	0
6513	0
6514	0
6515	0
6516	0
6517	0
6518	0
6519	0
6520	0
6521	0
6522	0
6523	1
6524	0
6525	0
6526	0
6527	0
6528	1
6529	0
6530	0
6531	0
6532	0
6533	0
6534	0
6535	0
6536	0
6537	0
6538	0
6539	0
6540	0
6541	0
6542	0
6543	0
6544	0
6545	0
6546	0
6547	0
6548	1
6549	0
6550	0
6551	0
6552	2
6553	1
6554	2
6555	7
6556	7
6557	16
6558	17
6559	31
6560	34
6561	22
6562	26
6563	26
6564	7
6565	6
6566	1
6567	2
6568	1
6569	0
6570	0
6571	1
6572	0
6573	0
6574	1
6575	0
6576	0
6577	0
6578	0
6579	0
6580	0
6581	0
6582	0
6583	0
6584	0
6585	0
6586	0
6587	0
6588	0
6589	0
6590	0
6591	0
6592	0
6593	0
6594	0
6595	0
6596	0
6597	0
6598	0
6599	0
6600	0
6601	0
6602	0
6603	0
6604	0
6605	0
6606	0
6607	0
6608	0
6609	0
6610	0
6611	0
6612	0
6613	0
6614	0
6615	0
6616	1
6617	0
6618	0
6619	0
6620	0
6621	0
6622	0
6623	0
6624	0
6625	0
6626	0
6627	0
6628	0
6629	0
6630	0
6631	0
6632	0
6633	0
6634	0
6635	0
6636	0
6637	0
6638	0
6639	0
6640	0
6641	0
6642	0
6643	0
6644	0
6645	0
6646	0
6647	0
6648	0
6649	0
6650	0
6651	0
6652	0
6653	0
6654	0
6655	0
6656	0
6657	0
6658	0
6659	0
6660	0
6661	0
6662	0
6663	0
6664	0
6665	0
6666	0
6667	0
6668	0
6669	0
6670	0
6671	0
6672	0
6673	0
6674	0
6675	0
6676	0
6677	0
6678	0
6679	0
6680	0
6681	0
6682	0
6683	0
6684	1
6685	0
6686	0
6687	0
6688	0
6689	0
6690	0
6691	0
6692	0
6693	0
6694	0
6695	0
6696	0
6697	1
6698	0
6699	0
6700	0
6701	0
6702	0
6703	0
6704	0
6705	0
6706	0
6707	0
6708	0
6709	0
6710	0
6711	0
6712	0
6713	0
6714	0
6715	0
6716	0
6717	0
6718	0
6719	0
6720	0
6721	0
6722	0
6723	0
6724	0
6725	0
6726	0
6727	0
6728	0
6729	0
6730	0
6731	0
6732	0
6733	0
6734	0
6735	0
6736	0
6737	0
6738	0
6739	0
6740	0
6741	0
6742	0
6743	0
6744	0
6745	0
6746	0
6747	0
6748	0
6749	0
6750	0
6751	0
6752	0
6753	0
6754	0
6755	0
6756	0
6757	0
6758	0
6759	0
6760	0
6761	0
6762	0
6763	0
6764	0
6765	0
6766	0
6767	0
6768	0
6769	0
6770	0
6771	0
6772	1
6773	0
6774	0
6775	0
6776	0
6777	0
6778	0
6779	0
6780	0
6781	0
6782	0
6783	0
6784	0
6785	0
6786	0
6787	0
6788	0
6789	0
6790	0
6791	0
6792	0
6793	0
6794	0
6795	0
6796	0
6797	0
6798	0
6799	0
6800	0
6801	0
6802	0
6803	1
6804	0
6805	0
6806	0
6807	0
6808	0
6809	0
6810	0
6811	0
6812	0
6813	0
6814	0
6815	0
6816	0
6817	0
6818	0
6819	0
6820	0
6821	0
6822	0
6823	0
6824	0
6825	0
6826	0
6827	0
6828	0
6829	0
6830	0
6831	0
6832	0
6833	0
6834	0
6835	0
6836	0
6837	1
6838	1
6839	0
6840	2
6841	0
6842	2
6843	1
6844	1
6845	1
6846	1
6847	1
6848	0
6849	0
6850	0
6851	0
6852	0
6853	0
6854	0
6855	0
6856	2
6857	0
6858	0
6859	0
6860	0
6861	0
6862	0
6863	0
6864	0
6865	0
6866	0
6867	0
6868	0
6869	0
6870	0
6871	0
6872	0
6873	0
6874	0
6875	0
6876	0
6877	0
6878	0
6879	0
6880	0
6881	0
6882	0
6883	1
6884	0
6885	0
6886	0
6887	0
6888	0
6889	0
6890	0
6891	0
6892	0
6893	0
6894	0
6895	0
6896	0
6897	0
6898	0
6899	0
6900	0
6901	0
6902	0
6903	0
6904	0
6905	0
6906	0
6907	0
6908	0
6909	0
6910	0
6911	0
6912	0
6913	0
6914	0
6915	0
6916	0
6917	0
6918	0
6919	0
6920	0
6921	0
6922	0
6923	0
6924	0
6925	0
6926	0
6927	0
6928	0
6929	0
6930	0
6931	0
6932	0
6933	0
6934	0
6935	0
6936	0
6937	0
6938	0
6939	0
6940	0
6941	0
6942	0
6943	0
6944	0
6945	0
6946	0
6947	0
6948	1
6949	0
6950	0
6951	0
6952	0
6953	0
6954	0
6955	0
6956	0
6957	0
6958	0
6959	0
6960	0
6961	0
6962	0
6963	0
6964	0
6965	0
6966	0
6967	0
6968	0
6969	0
6970	0
6971	0
6972	0
6973	0
6974	0
6975	0
6976	0
6977	0
6978	0
6979	0
6980	0
6981	0
6982	0
6983	0
6984	0
6985	0
6986	0
6987	0
6988	0
6989	0
6990	0
6991	0
6992	0
6993	0
6994	0
6995	0
6996	0
6997	0
6998	0
6999	0
7000	0
7001	0
7002	0
7003	0
7004	0
7005	0
7006	0
7007	0
7008	0
7009	0
7010	0
7011	0
7012	0
7013	0
7014	0
7015	0
7016	0
7017	0
7018	0
7019	0
7020	0
7021	0
7022	0
7023	0
7024	0
7025	0
7026	0
7027	0
7028	0
7029	0
7030	0
7031	0
7032	0
7033	0
7034	0
7035	0
7036	0
7037	0
7038	0
7039	0
7040	0
7041	0
7042	0
7043	0
7044	0
7045	0
7046	0
7047	0
7048	0
7049	0
7050	0
7051	0
7052	0
7053	0
7054	0
7055	0
7056	0
7057	0
7058	0
7059	0
7060	0
7061	0
7062	0
7063	0
7064	0
7065	0
7066	0
7067	0
7068	0
7069	0
7070	0
7071	0
7072	0
7073	0
7074	0
7075	0
7076	0
7077	0
7078	0
7079	0
7080	0
7081	0
7082	0
7083	0
7084	0
7085	0
7086	0
7087	0
7088	0
7089	1
7090	0
7091	0
7092	0
7093	0
7094	0
7095	0
7096	0
7097	0
7098	0
7099	0
7100	0
7101	0
7102	0
7103	0
7104	0
7105	0
7106	0
7107	0
7108	0
7109	0
7110	0
7111	0
7112	0
7113	0
7114	0
7115	0
7116	0
7117	0
7118	0
7119	0
7120	1
7121	0
7122	0
7123	0
7124	0
7125	0
7126	0
7127	0
7128	0
7129	0
7130	0
7131	0
7132	0
7133	0
7134	0
7135	0
7136	0
7137	0
7138	0
7139	0
7140	0
7141	0
7142	0
7143	1
7144	0
7145	1
7146	0
7147	0
7148	0
7149	0
7150	0
7151	0
7152	0
7153	0
7154	0
7155	0
7156	0
7157	0
7158	0
7159	0
7160	0
7161	0
7162	0
7163	0
7164	0
7165	0
7166	0
7167	0
7168	0
7169	0
7170	0
7171	0
7172	0
7173	0
7174	0
7175	0
7176	1
7177	0
7178	0
7179	0
7180	0
7181	0
7182	0
7183	0
7184	0
7185	0
7186	0
7187	0
7188	0
7189	0
7190	0
7191	0
7192	0
7193	0
7194	0
7195	0
7196	0
7197	0
7198	0
7199	0
7200	0
7201	0
7202	0
7203	0
7204	1
7205	0
7206	0
7207	0
7208	0
7209	0
7210	0
7211	0
7212	0
7213	0
7214	0
7215	0
7216	0
7217	0
7218	0
7219	0
7220	0
7221	0
7222	0
7223	0
7224	0
7225	0
7226	0
7227	0
7228	0
7229	1
7230	0
7231	0
7232	0
7233	0
7234	0
7235	0
7236	0
7237	0
7238	0
7239	0
7240	0
7241	0
7242	0
7243	0
7244	0
7245	0
7246	0
7247	0
7248	0
7249	0
7250	0
7251	0
7252	0
7253	0
7254	0
7255	0
7256	0
7257	0
7258	0
7259	0
7260	0
7261	0
7262	0
7263	0
7264	0
7265	0
7266	0
7267	0
7268	0
7269	0
7270	0
7271	0
7272	0
7273	0
7274	0
7275	0
7276	0
7277	0
7278	0
7279	0
7280	0
7281	0
7282	0
7283	0
7284	0
7285	0
7286	0
7287	0
7288	0
7289	0
7290	0
7291	0
7292	0
7293	0
7294	0
7295	0
7296	0
7297	0
7298	0
7299	0
7300	0
7301	0
7302	0
7303	0
7304	0
7305	0
7306	0
7307	0
7308	0
7309	0
7310	1
7311	0
7312	0
7313	0
7314	0
7315	0
7316	0
7317	0
7318	0
7319	0
7320	0
7321	0
7322	0
7323	0
7324	0
7325	0
7326	0
7327	0
7328	0
7329	0
7330	0
7331	0
7332	0
7333	0
7334	0
7335	0
7336	0
7337	1
7338	0
7339	0
7340	0
7341	0
7342	0
7343	0
7344	1
7345	0
7346	0
7347	0
7348	0
7349	0
7350	0
7351	0
7352	0
7353	0
7354	0
7355	0
7356	0
7357	0
7358	0
7359	0
7360	0
7361	0
7362	0
7363	0
7364	0
7365	0
7366	0
7367	0
7368	0
7369	0
7370	0
7371	0
7372	0
7373	0
7374	0
7375	0
7376	0
7377	0
7378	0
7379	0
7380	0
7381	0
7382	0
7383	0
7384	0
7385	0
7386	0
7387	0
7388	0
7389	0
7390	0
7391	0
7392	0
7393	0
7394	0
7395	0
7396	0
7397	0
7398	1
7399	0
7400	0
7401	0
7402	0
7403	0
7404	0
7405	0
7406	0
7407	0
7408	0
7409	0
7410	0
7411	0
7412	0
7413	0
7414	0
7415	0
7416	0
7417	0
7418	0
7419	0
7420	0
7421	0
7422	1
7423	0
7424	0
7425	0
7426	0
7427	0
7428	0
7429	0
7430	0
7431	0
7432	0
7433	0
7434	0
7435	0
7436	0
7437	0
7438	0
7439	0
7440	0
7441	0
7442	0
7443	0
7444	0
7445	0
7446	0
7447	0
7448	0
7449	0
7450	0
7451	0
7452	0
7453	0
7454	0
7455	0
7456	0
7457	0
7458	0
7459	0
7460	0
7461	0
7462	0
7463	0
7464	0
7465	0
7466	0
7467	0
7468	0
7469	0
7470	0
7471	0
7472	0
7473	0
7474	0
7475	0
7476	0
7477	0
7478	0
7479	0
7480	0
7481	0
7482	0
7483	0
7484	0
7485	0
7486	0
7487	0
7488	0
7489	0
7490	0
7491	0
7492	0
7493	0
7494	0
7495	0
7496	0
7497	0
7498	0
7499	0
7500	0
7501	0
7502	0
7503	0
7504	0
7505	0
7506	0
7507	0
7508	0
7509	0
7510	0
7511	0
7512	0
7513	0
7514	0
7515	0
7516	0
7517	0
7518	0
7519	0
7520	0
7521	0
7522	0
7523	0
7524	0
7525	0
7526	0
7527	0
7528	0
7529	0
7530	0
7531	0
7532	0
7533	0
7534	0
7535	0
7536	0
7537	0
7538	0
7539	0
7540	0
7541	0
7542	0
7543	0
7544	0
7545	0
7546	0
7547	0
7548	0
7549	0
7550	0
7551	0
7552	0
7553	0
7554	0
7555	0
7556	0
7557	0
7558	0
7559	0
7560	0
7561	0
7562	0
7563	0
7564	0
7565	0
7566	0
7567	0
7568	0
7569	0
7570	0
7571	0
7572	0
7573	0
7574	0
7575	0
7576	0
7577	0
7578	0
7579	0
7580	0
7581	0
7582	0
7583	0
7584	0
7585	0
7586	0
7587	0
7588	0
7589	0
7590	0
7591	0
7592	0
7593	0
7594	0
7595	0
7596	0
7597	0
7598	0
7599	0
7600	0
7601	0
7602	0
7603	0
7604	0
7605	0
7606	0
7607	0
7608	0
7609	0
7610	0
7611	0
7612	0
7613	0
7614	0
7615	0
7616	0
7617	0
7618	0
7619	0
7620	0
7621	0
7622	0
7623	0
7624	0
7625	0
7626	0
7627	0
7628	0
7629	0
7630	0
7631	0
7632	0
7633	0
7634	0
7635	0
7636	0
7637	0
7638	0
7639	0
7640	0
7641	0
7642	0
7643	1
7644	0
7645	0
7646	0
7647	0
7648	0
7649	0
7650	0
7651	0
7652	0
7653	0
7654	0
7655	0
7656	0
7657	0
7658	0
7659	0
7660	0
7661	0
7662	0
7663	0
7664	0
7665	0
7666	0
7667	0
7668	0
7669	0
7670	0
7671	0
7672	0
7673	0
7674	0
7675	0
7676	0
7677	0
7678	0
7679	0
7680	0
7681	0
7682	0
7683	0
7684	0
7685	0
7686	0
7687	0
7688	0
7689	0
7690	0
7691	0
7692	0
7693	0
7694	0
7695	0
7696	0
7697	0
7698	0
7699	0
7700	0
7701	0
7702	0
7703	0
7704	0
7705	0
7706	0
7707	0
7708	0
7709	0
7710	0
7711	0
7712	0
7713	0
7714	0
7715	0
7716	0
7717	0
7718	0
7719	0
7720	0
7721	0
7722	0
7723	0
7724	0
7725	0
7726	0
7727	0
7728	0
7729	0
7730	0
7731	0
7732	0
7733	0
7734	0
7735	0
7736	0
7737	0
7738	0
7739	0
7740	0
7741	0
7742	0
7743	0
7744	0
7745	0
7746	0
7747	0
7748	0
7749	0
7750	0
7751	0
7752	0
7753	0
7754	0
7755	0
7756	0
7757	0
7758	0
7759	0
7760	0
7761	0
7762	0
7763	0
7764	0
7765	0
7766	0
7767	0
7768	0
7769	0
7770	0
7771	0
7772	0
7773	0
7774	0
7775	0
7776	0
7777	0
7778	0
7779	0
7780	0
7781	0
7782	0
7783	0
7784	0
7785	0
7786	0
7787	0
7788	0
7789	0
7790	0
7791	0
7792	0
7793	0
7794	0
7795	0
7796	0
7797	0
7798	0
7799	0
7800	0
7801	0
7802	0
7803	0
7804	0
7805	0
7806	0
7807	0
7808	0
7809	0
7810	0
7811	0
7812	0
7813	0
7814	0
7815	0
7816	0
7817	0
7818	0
7819	0
7820	0
7821	0
7822	0
7823	0
7824	0
7825	0
7826	0
7827	0
7828	0
7829	0
7830	0
7831	0
7832	0
7833	0
7834	0
7835	0
7836	0
7837	0
7838	0
7839	0
7840	0
7841	0
7842	0
7843	0
7844	0
7845	0
7846	0
7847	0
7848	0
7849	0
7850	0
7851	0
7852	1
7853	0
7854	0
7855	0
7856	0
7857	0
7858	0
7859	0
7860	0
7861	0
7862	0
7863	0
7864	0
7865	0
7866	0
7867	0
7868	0
7869	0
7870	0
7871	0
7872	0
7873	1
7874	0
7875	0
7876	0
7877	0
7878	0
7879	0
7880	0
7881	0
7882	0
7883	0
7884	0
7885	0
7886	0
7887	0
7888	0
7889	0
7890	0
7891	0
7892	0
7893	0
7894	0
7895	0
7896	0
7897	0
7898	0
7899	0
7900	0
7901	0
7902	0
7903	0
7904	0
7905	0
7906	0
7907	0
7908	0
7909	0
7910	0
7911	0
7912	0
7913	0
7914	0
7915	0
7916	0
7917	0
7918	0
7919	0
7920	0
7921	0
7922	0
7923	0
7924	0
7925	0
7926	0
7927	0
7928	0
7929	0
7930	0
7931	0
7932	0
7933	0
7934	0
7935	0
7936	0
7937	0
7938	0
7939	0
7940	0
7941	0
7942	0
7943	0
7944	0
7945	0
7946	0
7947	0
7948	0
7949	0
7950	0
7951	0
7952	0
7953	0
7954	0
7955	0
7956	0
7957	0
7958	0
7959	0
7960	0
7961	0
7962	0
7963	0
7964	0
7965	0
7966	0
7967	0
7968	0
7969	0
7970	0
7971	0
7972	0
7973	0
7974	0
7975	0
7976	0
7977	0
7978	0
7979	0
7980	0
7981	0
7982	0
7983	0
7984	0
7985	0
7986	0
7987	0
7988	0
7989	0
7990	0
7991	0
7992	0
7993	0
7994	0
7995	0
7996	0
7997	0
7998	0
7999	0
8000	0
8001	0
8002	0
8003	0
8004	0
8005	0
8006	0
8007	0
8008	0
8009	0
8010	0
8011	0
8012	0
8013	0
8014	0
8015	0
8016	0
8017	0
8018	0
8019	0
8020	0
8021	0
8022	0
8023	0
8024	0
8025	0
8026	0
8027	0
8028	0
8029	0
8030	0
8031	0
8032	0
8033	0
8034	0
8035	0
8036	0
8037	0
8038	0
8039	0
8040	0
8041	0
8042	0
8043	0
8044	0
8045	0
8046	0
8047	0
8048	0
8049	0
8050	0
8051	0
8052	0
8053	0
8054	0
8055	0
8056	0
8057	0
8058	0
8059	0
8060	0
8061	0
8062	0
8063	0
8064	0
8065	0
8066	0
8067	0
8068	0
8069	0
8070	0
8071	0
8072	0
8073	0
8074	0
8075	0
8076	0
8077	0
8078	0
8079	0
8080	0
8081	0
8082	0
8083	0
8084	0
8085	0
8086	0
8087	0
8088	0
8089	0
8090	0
8091	0
8092	0
8093	0
8094	0
8095	0
8096	0
8097	0
8098	0
8099	0
8100	0
8101	0
8102	0
8103	0
8104	0
8105	0
8106	0
8107	0
8108	0
8109	0
8110	0
8111	0
8112	0
8113	0
8114	0
8115	0
8116	0
8117	0
8118	0
8119	0
8120	0
8121	0
8122	0
8123	0
8124	0
8125	0
8126	0
8127	0
8128	0
8129	0
8130	0
8131	0
8132	0
8133	0
8134	0
8135	0
8136	0
8137	0
8138	0
8139	0
8140	0
8141	0
8142	0
8143	0
8144	0
8145	0
8146	0
8147	0
8148	0
8149	0
8150	0
8151	0
8152	0
8153	0
8154	0
8155	0
8156	0
8157	0
8158	0
8159	0
8160	0
8161	0
8162	0
8163	0
8164	0
8165	0
8166	0
8167	0
8168	0
8169	0
8170	0
8171	0
8172	0
8173	0
8174	0
8175	0
8176	0
8177	0
8178	0
8179	0
8180	0
8181	0
8182	0
8183	0
8184	0
8185	0
8186	0
8187	0
8188	0
8189	0
8190	0
8191	0
