0	0
1	0
2	0
3	0
4	0
5	0
6	0
7	0
8	0
9	0
10	0
11	0
12	0
13	0
14	0
15	0
16	0
17	0
18	0
19	0
20	0
21	0
22	0
23	0
24	0
25	0
26	0
27	0
28	0
29	0
30	0
31	0
32	0
33	0
34	0
35	0
36	0
37	0
38	0
39	0
40	0
41	0
42	0
43	0
44	0
45	0
46	0
47	0
48	0
49	0
50	0
51	0
52	0
53	0
54	0
55	0
56	0
57	0
58	0
59	0
60	0
61	0
62	0
63	0
64	0
65	0
66	0
67	0
68	0
69	0
70	0
71	0
72	0
73	0
74	0
75	0
76	0
77	0
78	0
79	0
80	0
81	0
82	0
83	0
84	0
85	0
86	0
87	0
88	0
89	0
90	0
91	0
92	0
93	0
94	0
95	0
96	0
97	0
98	0
99	0
100	0
101	0
102	0
103	0
104	0
105	0
106	0
107	0
108	0
109	0
110	0
111	0
112	0
113	0
114	0
115	0
116	0
117	0
118	60
119	226
120	385
121	460
122	463
123	476
124	493
125	473
126	435
127	483
128	461
129	480
130	449
131	434
132	458
133	433
134	424
135	440
136	481
137	439
138	462
139	404
140	456
141	430
142	435
143	415
144	410
145	441
146	436
147	406
148	422
149	423
150	383
151	444
152	423
153	419
154	436
155	415
156	448
157	405
158	442
159	394
160	422
161	392
162	417
163	401
164	417
165	386
166	411
167	381
168	422
169	381
170	402
171	387
172	386
173	413
174	417
175	356
176	389
177	407
178	406
179	382
180	389
181	371
182	390
183	376
184	386
185	397
186	373
187	386
188	398
189	404
190	366
191	372
192	367
193	435
194	372
195	409
196	427
197	425
198	380
199	378
200	360
201	392
202	397
203	381
204	397
205	368
206	371
207	361
208	372
209	355
210	436
211	383
212	360
213	361
214	404
215	359
216	384
217	443
218	337
219	378
220	370
221	384
222	414
223	368
224	417
225	371
226	389
227	398
228	374
229	404
230	390
231	387
232	350
233	392
234	361
235	364
236	388
237	336
238	369
239	372
240	349
241	355
242	365
243	363
244	381
245	346
246	363
247	343
248	390
249	371
250	375
251	368
252	383
253	363
254	341
255	352
256	356
257	352
258	369
259	352
260	408
261	396
262	375
263	384
264	340
265	407
266	357
267	357
268	344
269	384
270	388
271	374
272	377
273	332
274	322
275	375
276	375
277	346
278	379
279	346
280	381
281	410
282	388
283	363
284	393
285	371
286	400
287	384
288	412
289	408
290	412
291	381
292	366
293	376
294	382
295	350
296	376
297	390
298	364
299	357
300	389
301	387
302	379
303	391
304	359
305	327
306	362
307	370
308	381
309	379
310	408
311	370
312	385
313	375
314	371
315	381
316	358
317	418
318	374
319	347
320	362
321	353
322	355
323	389
324	390
325	366
326	369
327	366
328	391
329	385
330	366
331	347
332	396
333	390
334	348
335	371
336	378
337	365
338	374
339	377
340	413
341	352
342	378
343	375
344	359
345	381
346	389
347	355
348	374
349	403
350	340
351	386
352	386
353	360
354	403
355	380
356	371
357	378
358	379
359	401
360	372
361	403
362	366
363	352
364	419
365	413
366	379
367	392
368	390
369	374
370	350
371	389
372	344
373	403
374	400
375	413
376	424
377	403
378	385
379	417
380	447
381	559
382	692
383	847
384	962
385	840
386	651
387	515
388	379
389	421
390	400
391	408
392	415
393	425
394	362
395	404
396	395
397	360
398	380
399	398
400	420
401	380
402	381
403	421
404	379
405	422
406	409
407	397
408	405
409	389
410	413
411	401
412	387
413	433
414	349
415	417
416	388
417	360
418	418
419	409
420	438
421	465
422	469
423	461
424	414
425	366
426	390
427	435
428	398
429	398
430	392
431	415
432	408
433	367
434	383
435	383
436	412
437	418
438	379
439	430
440	330
441	422
442	364
443	422
444	380
445	394
446	386
447	398
448	356
449	404
450	410
451	407
452	380
453	424
454	381
455	379
456	415
457	378
458	422
459	443
460	404
461	357
462	421
463	388
464	351
465	414
466	393
467	397
468	387
469	406
470	398
471	373
472	389
473	425
474	415
475	406
476	426
477	382
478	383
479	373
480	445
481	398
482	457
483	390
484	414
485	365
486	370
487	404
488	400
489	421
490	383
491	393
492	389
493	371
494	407
495	399
496	380
497	425
498	407
499	407
500	408
501	361
502	409
503	386
504	428
505	379
506	418
507	388
508	414
509	395
510	426
511	392
512	393
513	459
514	456
515	463
516	431
517	434
518	447
519	453
520	433
521	484
522	427
523	449
524	445
525	426
526	445
527	424
528	441
529	435
530	487
531	450
532	431
533	457
534	458
535	442
536	438
537	477
538	474
539	473
540	432
541	465
542	459
543	544
544	514
545	483
546	471
547	513
548	510
549	517
550	479
551	535
552	528
553	515
554	533
555	515
556	511
557	500
558	506
559	500
560	565
561	536
562	556
563	528
564	546
565	519
566	532
567	478
568	503
569	511
570	537
571	515
572	525
573	499
574	503
575	521
576	482
577	542
578	489
579	503
580	519
581	466
582	509
583	478
584	511
585	480
586	456
587	480
588	482
589	461
590	452
591	470
592	455
593	449
594	449
595	522
596	466
597	474
598	436
599	488
600	489
601	409
602	437
603	456
604	478
605	505
606	460
607	454
608	465
609	468
610	468
611	413
612	441
613	432
614	444
615	469
616	480
617	443
618	436
619	452
620	464
621	427
622	506
623	479
624	480
625	447
626	493
627	482
628	500
629	498
630	486
631	467
632	463
633	497
634	446
635	475
636	461
637	480
638	459
639	490
640	489
641	461
642	480
643	483
644	456
645	461
646	457
647	478
648	411
649	510
650	467
651	430
652	487
653	472
654	477
655	480
656	534
657	482
658	461
659	460
660	461
661	464
662	397
663	469
664	482
665	451
666	476
667	451
668	453
669	470
670	480
671	431
672	448
673	435
674	428
675	456
676	466
677	418
678	406
679	454
680	436
681	461
682	426
683	488
684	442
685	441
686	420
687	442
688	414
689	420
690	418
691	406
692	466
693	435
694	410
695	432
696	416
697	454
698	418
699	417
700	407
701	380
702	444
703	381
704	408
705	458
706	428
707	435
708	392
709	435
710	437
711	360
712	414
713	384
714	387
715	415
716	428
717	413
718	415
719	407
720	381
721	398
722	414
723	431
724	421
725	392
726	441
727	401
728	399
729	386
730	408
731	402
732	404
733	375
734	417
735	427
736	381
737	415
738	403
739	398
740	406
741	420
742	379
743	405
744	408
745	387
746	409
747	377
748	398
749	400
750	371
751	371
752	376
753	390
754	385
755	392
756	370
757	414
758	385
759	388
760	402
761	392
762	378
763	376
764	380
765	361
766	416
767	367
768	385
769	414
770	394
771	397
772	434
773	378
774	364
775	394
776	355
777	410
778	397
779	385
780	384
781	410
782	342
783	390
784	389
785	368
786	388
787	405
788	335
789	384
790	368
791	373
792	380
793	386
794	398
795	382
796	362
797	386
798	368
799	392
800	386
801	379
802	397
803	388
804	429
805	359
806	401
807	368
808	346
809	372
810	410
811	367
812	382
813	385
814	397
815	372
816	358
817	399
818	349
819	373
820	389
821	394
822	382
823	392
824	370
825	405
826	372
827	358
828	411
829	394
830	366
831	409
832	367
833	380
834	411
835	365
836	382
837	365
838	357
839	381
840	369
841	405
842	331
843	404
844	390
845	371
846	338
847	391
848	405
849	351
850	394
851	394
852	367
853	390
854	312
855	378
856	364
857	380
858	361
859	374
860	365
861	382
862	361
863	369
864	354
865	377
866	340
867	355
868	363
869	394
870	375
871	406
872	423
873	365
874	402
875	377
876	340
877	378
878	354
879	379
880	375
881	358
882	406
883	386
884	370
885	379
886	400
887	365
888	373
889	399
890	362
891	357
892	343
893	383
894	348
895	419
896	373
897	365
898	373
899	362
900	372
901	368
902	367
903	393
904	380
905	352
906	364
907	336
908	384
909	386
910	342
911	362
912	339
913	361
914	365
915	404
916	387
917	397
918	356
919	386
920	358
921	388
922	342
923	359
924	354
925	368
926	367
927	344
928	363
929	406
930	353
931	354
932	375
933	373
934	353
935	385
936	367
937	361
938	360
939	391
940	339
941	378
942	363
943	340
944	336
945	346
946	346
947	366
948	348
949	352
950	334
951	343
952	310
953	347
954	349
955	377
956	348
957	370
958	346
959	331
960	327
961	345
962	347
963	375
964	331
965	342
966	324
967	337
968	327
969	347
970	376
971	319
972	292
973	357
974	330
975	328
976	340
977	313
978	355
979	329
980	332
981	316
982	354
983	367
984	328
985	308
986	352
987	338
988	348
989	338
990	296
991	329
992	361
993	331
994	317
995	312
996	337
997	341
998	309
999	328
1000	302
1001	302
1002	318
1003	323
1004	296
1005	299
1006	335
1007	332
1008	329
1009	296
1010	326
1011	333
1012	301
1013	321
1014	297
1015	330
1016	318
1017	293
1018	343
1019	326
1020	328
1021	306
1022	367
1023	291
1024	290
1025	328
1026	362
1027	293
1028	339
1029	325
1030	336
1031	320
1032	302
1033	321
1034	302
1035	282
1036	321
1037	338
1038	312
1039	309
1040	325
1041	334
1042	326
1043	322
1044	295
1045	302
1046	324
1047	302
1048	322
1049	352
1050	316
1051	301
1052	313
1053	324
1054	336
1055	320
1056	304
1057	321
1058	290
1059	306
1060	358
1061	299
1062	295
1063	294
1064	319
1065	340
1066	311
1067	360
1068	307
1069	308
1070	287
1071	274
1072	315
1073	298
1074	319
1075	320
1076	313
1077	286
1078	326
1079	329
1080	282
1081	281
1082	315
1083	311
1084	311
1085	346
1086	308
1087	309
1088	289
1089	346
1090	311
1091	336
1092	305
1093	310
1094	312
1095	327
1096	340
1097	319
1098	355
1099	330
1100	315
1101	303
1102	317
1103	314
1104	301
1105	313
1106	285
1107	278
1108	321
1109	314
1110	307
1111	280
1112	345
1113	309
1114	345
1115	332
1116	327
1117	347
1118	323
1119	330
1120	337
1121	278
1122	308
1123	341
1124	333
1125	324
1126	328
1127	334
1128	316
1129	322
1130	296
1131	328
1132	345
1133	349
1134	326
1135	308
1136	318
1137	359
1138	282
1139	330
1140	317
1141	325
1142	345
1143	340
1144	300
1145	351
1146	309
1147	298
1148	325
1149	317
1150	321
1151	305
1152	373
1153	340
1154	332
1155	320
1156	311
1157	310
1158	351
1159	332
1160	333
1161	311
1162	323
1163	329
1164	328
1165	344
1166	356
1167	348
1168	322
1169	366
1170	333
1171	346
1172	318
1173	344
1174	339
1175	352
1176	339
1177	312
1178	349
1179	363
1180	329
1181	332
1182	344
1183	369
1184	318
1185	338
1186	367
1187	363
1188	339
1189	327
1190	368
1191	332
1192	347
1193	350
1194	346
1195	343
1196	368
1197	356
1198	374
1199	388
1200	358
1201	350
1202	354
1203	372
1204	376
1205	388
1206	365
1207	344
1208	383
1209	370
1210	396
1211	365
1212	362
1213	337
1214	353
1215	374
1216	332
1217	380
1218	388
1219	338
1220	373
1221	376
1222	377
1223	362
1224	386
1225	389
1226	314
1227	363
1228	400
1229	372
1230	380
1231	392
1232	398
1233	366
1234	385
1235	362
1236	325
1237	378
1238	368
1239	366
1240	370
1241	378
1242	358
1243	385
1244	383
1245	346
1246	332
1247	362
1248	391
1249	371
1250	381
1251	355
1252	405
1253	374
1254	401
1255	422
1256	390
1257	371
1258	393
1259	389
1260	353
1261	376
1262	359
1263	374
1264	388
1265	374
1266	393
1267	389
1268	379
1269	403
1270	356
1271	379
1272	411
1273	360
1274	374
1275	397
1276	427
1277	412
1278	381
1279	422
1280	393
1281	393
1282	410
1283	369
1284	371
1285	387
1286	392
1287	378
1288	398
1289	354
1290	337
1291	374
1292	394
1293	405
1294	374
1295	375
1296	372
1297	359
1298	367
1299	354
1300	355
1301	343
1302	392
1303	363
1304	319
1305	302
1306	297
1307	299
1308	313
1309	334
1310	325
1311	290
1312	300
1313	286
1314	266
1315	329
1316	275
1317	284
1318	306
1319	310
1320	256
1321	288
1322	292
1323	266
1324	259
1325	202
1326	273
1327	258
1328	277
1329	284
1330	248
1331	260
1332	269
1333	245
1334	234
1335	249
1336	251
1337	228
1338	247
1339	253
1340	253
1341	245
1342	251
1343	258
1344	248
1345	250
1346	238
1347	264
1348	241
1349	264
1350	237
1351	250
1352	229
1353	229
1354	214
1355	240
1356	240
1357	248
1358	234
1359	239
1360	219
1361	236
1362	211
1363	216
1364	241
1365	248
1366	251
1367	234
1368	217
1369	240
1370	226
1371	246
1372	226
1373	234
1374	218
1375	222
1376	248
1377	242
1378	232
1379	255
1380	249
1381	266
1382	337
1383	386
1384	552
1385	830
1386	1176
1387	1661
1388	2271
1389	2802
1390	3142
1391	3143
1392	3187
1393	2716
1394	2122
1395	1503
1396	1052
1397	748
1398	494
1399	383
1400	261
1401	228
1402	201
1403	226
1404	196
1405	204
1406	213
1407	191
1408	198
1409	189
1410	202
1411	191
1412	181
1413	182
1414	197
1415	174
1416	204
1417	200
1418	184
1419	175
1420	183
1421	191
1422	188
1423	174
1424	182
1425	174
1426	178
1427	159
1428	178
1429	180
1430	163
1431	176
1432	178
1433	177
1434	164
1435	160
1436	160
1437	161
1438	165
1439	173
1440	182
1441	182
1442	164
1443	180
1444	149
1445	169
1446	148
1447	159
1448	183
1449	159
1450	161
1451	158
1452	185
1453	181
1454	153
1455	187
1456	151
1457	161
1458	146
1459	138
1460	160
1461	164
1462	151
1463	154
1464	177
1465	152
1466	129
1467	145
1468	157
1469	166
1470	169
1471	180
1472	157
1473	174
1474	147
1475	180
1476	155
1477	144
1478	167
1479	161
1480	126
1481	146
1482	189
1483	144
1484	151
1485	127
1486	151
1487	154
1488	145
1489	129
1490	145
1491	139
1492	141
1493	143
1494	144
1495	140
1496	152
1497	154
1498	166
1499	145
1500	120
1501	129
1502	151
1503	132
1504	138
1505	148
1506	138
1507	140
1508	109
1509	130
1510	128
1511	149
1512	127
1513	149
1514	148
1515	144
1516	141
1517	126
1518	137
1519	153
1520	123
1521	131
1522	133
1523	138
1524	148
1525	132
1526	150
1527	141
1528	139
1529	134
1530	138
1531	142
1532	140
1533	119
1534	153
1535	131
1536	128
1537	119
1538	124
1539	130
1540	155
1541	134
1542	118
1543	142
1544	121
1545	126
1546	125
1547	131
1548	129
1549	142
1550	121
1551	146
1552	142
1553	148
1554	136
1555	130
1556	123
1557	131
1558	121
1559	122
1560	130
1561	122
1562	128
1563	144
1564	135
1565	140
1566	164
1567	116
1568	117
1569	125
1570	129
1571	131
1572	138
1573	139
1574	142
1575	115
1576	116
1577	132
1578	105
1579	148
1580	117
1581	122
1582	142
1583	131
1584	108
1585	123
1586	129
1587	145
1588	119
1589	132
1590	134
1591	117
1592	131
1593	101
1594	118
1595	116
1596	134
1597	126
1598	130
1599	116
1600	117
1601	123
1602	130
1603	113
1604	130
1605	129
1606	125
1607	135
1608	130
1609	143
1610	126
1611	124
1612	132
1613	117
1614	131
1615	117
1616	112
1617	117
1618	123
1619	120
1620	115
1621	121
1622	122
1623	112
1624	129
1625	112
1626	108
1627	121
1628	118
1629	123
1630	134
1631	120
1632	122
1633	127
1634	132
1635	130
1636	121
1637	130
1638	130
1639	128
1640	119
1641	119
1642	100
1643	153
1644	123
1645	110
1646	117
1647	125
1648	110
1649	130
1650	107
1651	127
1652	142
1653	113
1654	113
1655	127
1656	114
1657	141
1658	129
1659	105
1660	118
1661	120
1662	124
1663	122
1664	130
1665	102
1666	123
1667	137
1668	109
1669	130
1670	97
1671	133
1672	135
1673	107
1674	125
1675	105
1676	132
1677	125
1678	118
1679	129
1680	132
1681	137
1682	124
1683	139
1684	137
1685	120
1686	105
1687	101
1688	117
1689	139
1690	118
1691	133
1692	122
1693	121
1694	132
1695	98
1696	127
1697	136
1698	93
1699	114
1700	118
1701	132
1702	94
1703	112
1704	119
1705	116
1706	124
1707	123
1708	116
1709	127
1710	112
1711	138
1712	120
1713	109
1714	120
1715	121
1716	96
1717	122
1718	111
1719	116
1720	122
1721	125
1722	134
1723	117
1724	104
1725	139
1726	137
1727	114
1728	115
1729	116
1730	113
1731	117
1732	106
1733	130
1734	114
1735	113
1736	101
1737	129
1738	115
1739	133
1740	131
1741	123
1742	143
1743	127
1744	128
1745	110
1746	117
1747	127
1748	117
1749	125
1750	110
1751	128
1752	117
1753	103
1754	128
1755	125
1756	135
1757	108
1758	132
1759	127
1760	122
1761	129
1762	128
1763	139
1764	131
1765	109
1766	120
1767	150
1768	116
1769	126
1770	131
1771	148
1772	138
1773	165
1774	234
1775	437
1776	1039
1777	2623
1778	6101
1779	11174
1780	16665
1781	19324
1782	17990
1783	12973
1784	7154
1785	3122
1786	1062
1787	341
1788	158
1789	107
1790	105
1791	108
1792	87
1793	99
1794	93
1795	92
1796	94
1797	94
1798	80
1799	85
1800	102
1801	91
1802	95
1803	94
1804	100
1805	100
1806	67
1807	87
1808	92
1809	66
1810	102
1811	94
1812	75
1813	95
1814	99
1815	72
1816	91
1817	96
1818	92
1819	100
1820	91
1821	88
1822	97
1823	87
1824	100
1825	74
1826	78
1827	99
1828	81
1829	87
1830	83
1831	91
1832	99
1833	96
1834	84
1835	93
1836	94
1837	88
1838	83
1839	75
1840	81
1841	84
1842	92
1843	77
1844	92
1845	100
1846	80
1847	82
1848	89
1849	79
1850	75
1851	102
1852	92
1853	107
1854	87
1855	86
1856	90
1857	82
1858	85
1859	84
1860	93
1861	88
1862	85
1863	86
1864	72
1865	86
1866	95
1867	87
1868	89
1869	74
1870	70
1871	106
1872	88
1873	79
1874	91
1875	76
1876	73
1877	76
1878	76
1879	99
1880	80
1881	86
1882	83
1883	90
1884	76
1885	94
1886	89
1887	88
1888	84
1889	86
1890	79
1891	95
1892	85
1893	81
1894	79
1895	92
1896	82
1897	92
1898	73
1899	97
1900	80
1901	100
1902	82
1903	89
1904	84
1905	90
1906	90
1907	78
1908	92
1909	92
1910	96
1911	94
1912	91
1913	87
1914	83
1915	89
1916	89
1917	117
1918	80
1919	93
1920	84
1921	96
1922	92
1923	71
1924	94
1925	71
1926	76
1927	85
1928	90
1929	88
1930	87
1931	93
1932	79
1933	79
1934	77
1935	101
1936	102
1937	90
1938	70
1939	80
1940	98
1941	89
1942	85
1943	85
1944	85
1945	97
1946	92
1947	106
1948	82
1949	99
1950	92
1951	85
1952	84
1953	94
1954	89
1955	86
1956	83
1957	91
1958	85
1959	111
1960	87
1961	78
1962	95
1963	85
1964	89
1965	69
1966	84
1967	79
1968	89
1969	87
1970	76
1971	87
1972	75
1973	112
1974	87
1975	87
1976	88
1977	69
1978	86
1979	75
1980	78
1981	92
1982	86
1983	81
1984	89
1985	98
1986	90
1987	94
1988	97
1989	77
1990	84
1991	107
1992	91
1993	77
1994	84
1995	86
1996	85
1997	82
1998	86
1999	73
2000	110
2001	104
2002	97
2003	78
2004	104
2005	82
2006	87
2007	98
2008	89
2009	81
2010	88
2011	94
2012	82
2013	92
2014	80
2015	99
2016	86
2017	80
2018	100
2019	94
2020	97
2021	86
2022	95
2023	92
2024	92
2025	86
2026	98
2027	83
2028	84
2029	81
2030	87
2031	93
2032	94
2033	82
2034	80
2035	86
2036	90
2037	79
2038	82
2039	84
2040	82
2041	89
2042	105
2043	110
2044	92
2045	111
2046	88
2047	98
2048	87
2049	84
2050	106
2051	84
2052	82
2053	79
2054	90
2055	86
2056	91
2057	93
2058	113
2059	104
2060	102
2061	112
2062	89
2063	100
2064	79
2065	96
2066	91
2067	97
2068	97
2069	101
2070	77
2071	88
2072	96
2073	94
2074	77
2075	106
2076	76
2077	90
2078	97
2079	95
2080	88
2081	96
2082	102
2083	84
2084	106
2085	93
2086	86
2087	83
2088	89
2089	93
2090	86
2091	84
2092	89
2093	95
2094	87
2095	107
2096	105
2097	91
2098	101
2099	99
2100	89
2101	89
2102	92
2103	65
2104	94
2105	87
2106	84
2107	102
2108	80
2109	96
2110	82
2111	109
2112	94
2113	81
2114	89
2115	116
2116	106
2117	92
2118	94
2119	96
2120	94
2121	99
2122	84
2123	93
2124	87
2125	118
2126	85
2127	115
2128	98
2129	88
2130	84
2131	84
2132	94
2133	101
2134	96
2135	89
2136	97
2137	115
2138	99
2139	100
2140	95
2141	114
2142	93
2143	93
2144	114
2145	96
2146	99
2147	93
2148	90
2149	88
2150	95
2151	104
2152	101
2153	123
2154	106
2155	101
2156	117
2157	97
2158	105
2159	78
2160	79
2161	105
2162	100
2163	89
2164	88
2165	101
2166	97
2167	99
2168	102
2169	99
2170	101
2171	95
2172	98
2173	101
2174	105
2175	106
2176	105
2177	99
2178	89
2179	87
2180	100
2181	106
2182	109
2183	109
2184	107
2185	93
2186	90
2187	110
2188	107
2189	112
2190	113
2191	110
2192	92
2193	98
2194	113
2195	116
2196	113
2197	122
2198	92
2199	110
2200	118
2201	91
2202	94
2203	112
2204	93
2205	107
2206	92
2207	97
2208	89
2209	118
2210	95
2211	92
2212	100
2213	100
2214	105
2215	103
2216	91
2217	93
2218	90
2219	108
2220	119
2221	99
2222	105
2223	102
2224	101
2225	86
2226	119
2227	119
2228	97
2229	106
2230	96
2231	106
2232	99
2233	100
2234	105
2235	88
2236	113
2237	85
2238	91
2239	99
2240	109
2241	93
2242	77
2243	107
2244	102
2245	114
2246	110
2247	105
2248	116
2249	105
2250	100
2251	101
2252	89
2253	97
2254	98
2255	106
2256	120
2257	101
2258	127
2259	120
2260	91
2261	106
2262	102
2263	109
2264	115
2265	92
2266	108
2267	108
2268	97
2269	102
2270	97
2271	115
2272	99
2273	79
2274	116
2275	93
2276	96
2277	109
2278	127
2279	104
2280	116
2281	95
2282	95
2283	89
2284	106
2285	99
2286	100
2287	97
2288	96
2289	94
2290	98
2291	121
2292	90
2293	108
2294	100
2295	157
2296	110
2297	104
2298	125
2299	110
2300	107
2301	105
2302	117
2303	97
2304	107
2305	115
2306	109
2307	111
2308	100
2309	88
2310	101
2311	113
2312	125
2313	101
2314	117
2315	103
2316	112
2317	118
2318	113
2319	98
2320	117
2321	121
2322	112
2323	98
2324	103
2325	113
2326	99
2327	117
2328	100
2329	111
2330	123
2331	105
2332	107
2333	138
2334	115
2335	122
2336	125
2337	119
2338	141
2339	118
2340	136
2341	115
2342	112
2343	99
2344	129
2345	103
2346	106
2347	109
2348	120
2349	130
2350	99
2351	122
2352	129
2353	109
2354	109
2355	132
2356	100
2357	105
2358	112
2359	99
2360	118
2361	95
2362	98
2363	131
2364	125
2365	151
2366	117
2367	119
2368	113
2369	123
2370	119
2371	128
2372	108
2373	127
2374	115
2375	124
2376	143
2377	124
2378	115
2379	119
2380	115
2381	119
2382	125
2383	122
2384	135
2385	129
2386	126
2387	118
2388	127
2389	108
2390	108
2391	134
2392	96
2393	119
2394	141
2395	121
2396	132
2397	138
2398	133
2399	128
2400	113
2401	114
2402	126
2403	139
2404	140
2405	122
2406	122
2407	124
2408	128
2409	129
2410	119
2411	128
2412	124
2413	117
2414	94
2415	107
2416	119
2417	132
2418	133
2419	137
2420	126
2421	139
2422	112
2423	127
2424	128
2425	129
2426	120
2427	122
2428	120
2429	136
2430	119
2431	120
2432	141
2433	142
2434	146
2435	131
2436	121
2437	138
2438	152
2439	129
2440	138
2441	120
2442	132
2443	134
2444	137
2445	134
2446	107
2447	114
2448	119
2449	117
2450	146
2451	129
2452	140
2453	120
2454	150
2455	131
2456	132
2457	139
2458	150
2459	122
2460	143
2461	146
2462	102
2463	135
2464	145
2465	127
2466	167
2467	133
2468	147
2469	144
2470	134
2471	132
2472	149
2473	130
2474	124
2475	145
2476	151
2477	148
2478	149
2479	147
2480	139
2481	136
2482	127
2483	133
2484	142
2485	151
2486	131
2487	138
2488	148
2489	133
2490	134
2491	131
2492	144
2493	136
2494	146
2495	148
2496	140
2497	137
2498	131
2499	161
2500	146
2501	141
2502	145
2503	140
2504	145
2505	141
2506	159
2507	145
2508	139
2509	151
2510	150
2511	143
2512	133
2513	144
2514	148
2515	141
2516	152
2517	146
2518	137
2519	169
2520	132
2521	148
2522	143
2523	142
2524	145
2525	152
2526	150
2527	141
2528	159
2529	142
2530	138
2531	160
2532	164
2533	164
2534	134
2535	148
2536	153
2537	127
2538	141
2539	165
2540	146
2541	125
2542	155
2543	155
2544	113
2545	141
2546	159
2547	168
2548	140
2549	139
2550	142
2551	135
2552	158
2553	159
2554	164
2555	159
2556	154
2557	148
2558	142
2559	133
2560	134
2561	141
2562	152
2563	131
2564	124
2565	116
2566	136
2567	142
2568	132
2569	136
2570	147
2571	133
2572	128
2573	110
2574	108
2575	109
2576	121
2577	115
2578	136
2579	115
2580	108
2581	115
2582	112
2583	107
2584	98
2585	94
2586	110
2587	133
2588	121
2589	117
2590	114
2591	115
2592	122
2593	112
2594	106
2595	113
2596	119
2597	116
2598	129
2599	125
2600	136
2601	104
2602	121
2603	105
2604	115
2605	125
2606	107
2607	105
2608	113
2609	106
2610	120
2611	131
2612	117
2613	113
2614	124
2615	125
2616	110
2617	107
2618	122
2619	125
2620	121
2621	114
2622	107
2623	106
2624	119
2625	124
2626	127
2627	128
2628	106
2629	106
2630	123
2631	107
2632	121
2633	107
2634	135
2635	107
2636	105
2637	104
2638	114
2639	109
2640	116
2641	109
2642	100
2643	116
2644	121
2645	104
2646	107
2647	109
2648	124
2649	123
2650	92
2651	108
2652	108
2653	126
2654	131
2655	112
2656	111
2657	110
2658	100
2659	107
2660	111
2661	98
2662	131
2663	97
2664	96
2665	119
2666	117
2667	113
2668	118
2669	120
2670	112
2671	110
2672	88
2673	116
2674	119
2675	114
2676	97
2677	103
2678	99
2679	93
2680	133
2681	132
2682	111
2683	103
2684	128
2685	94
2686	106
2687	110
2688	114
2689	117
2690	110
2691	121
2692	99
2693	103
2694	107
2695	115
2696	123
2697	98
2698	114
2699	109
2700	99
2701	87
2702	109
2703	109
2704	129
2705	105
2706	115
2707	117
2708	115
2709	114
2710	97
2711	106
2712	117
2713	96
2714	86
2715	98
2716	93
2717	100
2718	128
2719	108
2720	119
2721	122
2722	108
2723	88
2724	122
2725	97
2726	103
2727	106
2728	101
2729	106
2730	103
2731	108
2732	106
2733	92
2734	113
2735	93
2736	92
2737	116
2738	116
2739	106
2740	91
2741	88
2742	102
2743	104
2744	94
2745	102
2746	91
2747	93
2748	96
2749	117
2750	117
2751	103
2752	105
2753	100
2754	118
2755	106
2756	120
2757	116
2758	118
2759	93
2760	102
2761	115
2762	91
2763	103
2764	110
2765	128
2766	109
2767	93
2768	103
2769	100
2770	107
2771	92
2772	100
2773	105
2774	105
2775	110
2776	97
2777	125
2778	113
2779	127
2780	115
2781	108
2782	109
2783	111
2784	108
2785	99
2786	89
2787	107
2788	113
2789	112
2790	105
2791	118
2792	99
2793	105
2794	123
2795	99
2796	108
2797	97
2798	99
2799	82
2800	86
2801	108
2802	119
2803	102
2804	118
2805	102
2806	112
2807	105
2808	111
2809	106
2810	105
2811	102
2812	105
2813	107
2814	85
2815	115
2816	89
2817	110
2818	99
2819	107
2820	92
2821	88
2822	109
2823	105
2824	103
2825	99
2826	98
2827	111
2828	92
2829	98
2830	94
2831	117
2832	107
2833	108
2834	116
2835	93
2836	102
2837	100
2838	101
2839	90
2840	84
2841	103
2842	92
2843	86
2844	105
2845	84
2846	82
2847	104
2848	107
2849	100
2850	121
2851	93
2852	109
2853	95
2854	98
2855	100
2856	90
2857	93
2858	82
2859	99
2860	100
2861	103
2862	92
2863	98
2864	88
2865	98
2866	106
2867	89
2868	98
2869	90
2870	108
2871	75
2872	101
2873	104
2874	85
2875	90
2876	103
2877	90
2878	99
2879	82
2880	99
2881	90
2882	89
2883	89
2884	99
2885	112
2886	107
2887	91
2888	91
2889	106
2890	92
2891	89
2892	99
2893	100
2894	92
2895	95
2896	88
2897	114
2898	114
2899	95
2900	110
2901	90
2902	102
2903	92
2904	101
2905	109
2906	97
2907	108
2908	83
2909	91
2910	103
2911	101
2912	86
2913	110
2914	105
2915	97
2916	86
2917	107
2918	94
2919	109
2920	100
2921	106
2922	97
2923	108
2924	101
2925	95
2926	97
2927	104
2928	97
2929	101
2930	111
2931	124
2932	114
2933	93
2934	98
2935	80
2936	82
2937	115
2938	79
2939	92
2940	84
2941	89
2942	106
2943	100
2944	102
2945	95
2946	100
2947	97
2948	86
2949	105
2950	82
2951	101
2952	109
2953	94
2954	107
2955	89
2956	70
2957	96
2958	90
2959	94
2960	89
2961	101
2962	91
2963	84
2964	89
2965	80
2966	70
2967	66
2968	80
2969	69
2970	70
2971	71
2972	82
2973	61
2974	78
2975	70
2976	58
2977	65
2978	76
2979	63
2980	80
2981	60
2982	95
2983	75
2984	68
2985	63
2986	69
2987	68
2988	59
2989	57
2990	67
2991	73
2992	78
2993	78
2994	66
2995	69
2996	62
2997	44
2998	64
2999	62
3000	69
3001	75
3002	56
3003	53
3004	50
3005	65
3006	62
3007	67
3008	75
3009	72
3010	75
3011	56
3012	64
3013	82
3014	61
3015	59
3016	50
3017	65
3018	64
3019	62
3020	54
3021	56
3022	65
3023	56
3024	72
3025	52
3026	65
3027	59
3028	61
3029	54
3030	58
3031	62
3032	49
3033	53
3034	59
3035	61
3036	65
3037	49
3038	66
3039	57
3040	56
3041	62
3042	44
3043	58
3044	52
3045	54
3046	55
3047	56
3048	50
3049	48
3050	50
3051	63
3052	58
3053	64
3054	47
3055	46
3056	34
3057	54
3058	50
3059	52
3060	47
3061	42
3062	51
3063	60
3064	47
3065	44
3066	58
3067	63
3068	58
3069	60
3070	49
3071	49
3072	56
3073	61
3074	61
3075	55
3076	65
3077	53
3078	41
3079	52
3080	48
3081	42
3082	50
3083	54
3084	48
3085	44
3086	50
3087	57
3088	48
3089	40
3090	41
3091	66
3092	56
3093	55
3094	51
3095	38
3096	48
3097	61
3098	60
3099	95
3100	160
3101	362
3102	768
3103	1707
3104	2899
3105	4431
3106	5593
3107	5625
3108	4786
3109	3308
3110	1902
3111	913
3112	328
3113	136
3114	57
3115	41
3116	49
3117	51
3118	41
3119	30
3120	45
3121	41
3122	45
3123	53
3124	33
3125	48
3126	27
3127	37
3128	29
3129	27
3130	37
3131	40
3132	38
3133	39
3134	34
3135	42
3136	42
3137	34
3138	28
3139	31
3140	43
3141	33
3142	29
3143	30
3144	30
3145	33
3146	34
3147	27
3148	34
3149	33
3150	43
3151	27
3152	29
3153	35
3154	29
3155	26
3156	30
3157	30
3158	29
3159	36
3160	35
3161	25
3162	32
3163	35
3164	26
3165	27
3166	30
3167	31
3168	28
3169	46
3170	29
3171	25
3172	24
3173	23
3174	24
3175	23
3176	25
3177	29
3178	28
3179	17
3180	32
3181	36
3182	22
3183	25
3184	29
3185	30
3186	26
3187	23
3188	39
3189	21
3190	21
3191	25
3192	27
3193	24
3194	20
3195	32
3196	19
3197	31
3198	25
3199	32
3200	15
3201	32
3202	29
3203	32
3204	18
3205	25
3206	20
3207	17
3208	27
3209	19
3210	25
3211	17
3212	18
3213	21
3214	22
3215	25
3216	15
3217	21
3218	26
3219	22
3220	21
3221	15
3222	17
3223	24
3224	23
3225	26
3226	20
3227	17
3228	19
3229	22
3230	12
3231	16
3232	13
3233	18
3234	25
3235	15
3236	21
3237	20
3238	15
3239	10
3240	21
3241	13
3242	30
3243	15
3244	14
3245	17
3246	18
3247	16
3248	12
3249	16
3250	21
3251	18
3252	20
3253	22
3254	22
3255	13
3256	20
3257	16
3258	11
3259	22
3260	12
3261	11
3262	24
3263	13
3264	18
3265	18
3266	23
3267	13
3268	22
3269	21
3270	17
3271	12
3272	12
3273	20
3274	15
3275	17
3276	14
3277	17
3278	16
3279	13
3280	13
3281	15
3282	14
3283	23
3284	12
3285	13
3286	10
3287	9
3288	15
3289	8
3290	14
3291	14
3292	16
3293	9
3294	12
3295	25
3296	21
3297	9
3298	10
3299	8
3300	8
3301	13
3302	9
3303	16
3304	12
3305	11
3306	14
3307	18
3308	15
3309	14
3310	17
3311	12
3312	10
3313	17
3314	10
3315	11
3316	13
3317	8
3318	11
3319	10
3320	4
3321	7
3322	11
3323	17
3324	15
3325	11
3326	8
3327	11
3328	15
3329	10
3330	14
3331	11
3332	10
3333	15
3334	19
3335	15
3336	12
3337	7
3338	10
3339	10
3340	7
3341	12
3342	17
3343	15
3344	13
3345	20
3346	14
3347	18
3348	11
3349	18
3350	14
3351	11
3352	7
3353	19
3354	10
3355	10
3356	17
3357	12
3358	10
3359	18
3360	17
3361	17
3362	31
3363	41
3364	126
3365	238
3366	467
3367	796
3368	1041
3369	1220
3370	1154
3371	903
3372	581
3373	304
3374	144
3375	57
3376	21
3377	17
3378	10
3379	12
3380	8
3381	11
3382	10
3383	11
3384	8
3385	10
3386	17
3387	10
3388	11
3389	13
3390	8
3391	11
3392	10
3393	10
3394	13
3395	12
3396	10
3397	8
3398	12
3399	11
3400	15
3401	16
3402	14
3403	13
3404	12
3405	8
3406	11
3407	7
3408	11
3409	11
3410	8
3411	9
3412	11
3413	8
3414	8
3415	9
3416	14
3417	9
3418	12
3419	5
3420	11
3421	8
3422	11
3423	7
3424	11
3425	13
3426	12
3427	9
3428	8
3429	14
3430	1
3431	6
3432	5
3433	8
3434	4
3435	7
3436	7
3437	14
3438	2
3439	13
3440	11
3441	9
3442	8
3443	10
3444	13
3445	6
3446	7
3447	8
3448	6
3449	5
3450	11
3451	7
3452	5
3453	9
3454	5
3455	10
3456	8
3457	6
3458	6
3459	8
3460	10
3461	4
3462	12
3463	14
3464	11
3465	5
3466	8
3467	9
3468	11
3469	11
3470	11
3471	8
3472	9
3473	8
3474	8
3475	14
3476	11
3477	11
3478	8
3479	7
3480	8
3481	6
3482	11
3483	11
3484	7
3485	15
3486	9
3487	9
3488	6
3489	8
3490	9
3491	9
3492	14
3493	7
3494	9
3495	10
3496	18
3497	12
3498	6
3499	7
3500	7
3501	6
3502	8
3503	17
3504	15
3505	10
3506	12
3507	13
3508	15
3509	13
3510	16
3511	33
3512	71
3513	158
3514	401
3515	874
3516	1788
3517	2928
3518	4200
3519	4888
3520	4725
3521	4051
3522	2718
3523	1545
3524	690
3525	257
3526	90
3527	49
3528	16
3529	10
3530	7
3531	4
3532	3
3533	10
3534	5
3535	8
3536	7
3537	4
3538	4
3539	7
3540	5
3541	5
3542	11
3543	8
3544	2
3545	9
3546	6
3547	5
3548	4
3549	6
3550	5
3551	5
3552	7
3553	7
3554	3
3555	4
3556	6
3557	6
3558	3
3559	3
3560	2
3561	6
3562	0
3563	1
3564	2
3565	2
3566	4
3567	4
3568	6
3569	1
3570	2
3571	3
3572	4
3573	5
3574	3
3575	5
3576	1
3577	2
3578	2
3579	5
3580	1
3581	3
3582	3
3583	6
3584	3
3585	3
3586	2
3587	3
3588	5
3589	4
3590	2
3591	4
3592	1
3593	3
3594	5
3595	6
3596	3
3597	6
3598	3
3599	2
3600	4
3601	2
3602	3
3603	5
3604	2
3605	6
3606	4
3607	6
3608	6
3609	6
3610	1
3611	2
3612	5
3613	2
3614	6
3615	2
3616	8
3617	5
3618	3
3619	0
3620	4
3621	3
3622	2
3623	3
3624	3
3625	5
3626	1
3627	4
3628	4
3629	3
3630	4
3631	3
3632	5
3633	5
3634	1
3635	2
3636	2
3637	2
3638	4
3639	1
3640	3
3641	2
3642	4
3643	3
3644	3
3645	9
3646	1
3647	2
3648	3
3649	1
3650	0
3651	6
3652	4
3653	6
3654	0
3655	3
3656	1
3657	2
3658	5
3659	5
3660	2
3661	7
3662	2
3663	2
3664	1
3665	2
3666	7
3667	1
3668	2
3669	3
3670	2
3671	4
3672	3
3673	4
3674	5
3675	2
3676	3
3677	4
3678	5
3679	1
3680	4
3681	3
3682	3
3683	4
3684	2
3685	4
3686	3
3687	3
3688	2
3689	4
3690	1
3691	3
3692	0
3693	3
3694	1
3695	4
3696	4
3697	3
3698	2
3699	4
3700	5
3701	1
3702	1
3703	2
3704	2
3705	2
3706	1
3707	3
3708	0
3709	5
3710	6
3711	1
3712	3
3713	2
3714	3
3715	4
3716	3
3717	2
3718	6
3719	1
3720	0
3721	5
3722	3
3723	4
3724	4
3725	2
3726	3
3727	3
3728	4
3729	1
3730	6
3731	0
3732	3
3733	2
3734	6
3735	4
3736	7
3737	4
3738	1
3739	0
3740	4
3741	4
3742	4
3743	4
3744	5
3745	3
3746	4
3747	2
3748	3
3749	1
3750	5
3751	2
3752	3
3753	1
3754	1
3755	0
3756	3
3757	5
3758	2
3759	4
3760	2
3761	0
3762	4
3763	4
3764	2
3765	1
3766	2
3767	2
3768	5
3769	4
3770	2
3771	3
3772	2
3773	1
3774	3
3775	1
3776	3
3777	1
3778	2
3779	0
3780	3
3781	2
3782	4
3783	3
3784	2
3785	2
3786	0
3787	4
3788	4
3789	2
3790	3
3791	1
3792	4
3793	4
3794	1
3795	5
3796	0
3797	3
3798	4
3799	1
3800	2
3801	1
3802	1
3803	2
3804	0
3805	2
3806	3
3807	2
3808	5
3809	1
3810	2
3811	2
3812	1
3813	0
3814	2
3815	2
3816	1
3817	6
3818	6
3819	3
3820	3
3821	1
3822	1
3823	3
3824	1
3825	4
3826	4
3827	5
3828	2
3829	1
3830	2
3831	2
3832	0
3833	4
3834	5
3835	2
3836	1
3837	3
3838	6
3839	2
3840	2
3841	2
3842	2
3843	0
3844	0
3845	5
3846	5
3847	2
3848	4
3849	4
3850	1
3851	4
3852	0
3853	2
3854	5
3855	6
3856	1
3857	2
3858	5
3859	0
3860	3
3861	3
3862	2
3863	6
3864	3
3865	3
3866	0
3867	5
3868	4
3869	2
3870	0
3871	1
3872	3
3873	2
3874	3
3875	2
3876	1
3877	1
3878	2
3879	1
3880	5
3881	1
3882	3
3883	2
3884	3
3885	5
3886	0
3887	0
3888	0
3889	6
3890	2
3891	1
3892	0
3893	2
3894	2
3895	1
3896	1
3897	5
3898	1
3899	2
3900	2
3901	1
3902	3
3903	2
3904	2
3905	2
3906	2
3907	1
3908	1
3909	3
3910	3
3911	4
3912	2
3913	1
3914	0
3915	1
3916	5
3917	3
3918	3
3919	2
3920	2
3921	1
3922	1
3923	3
3924	2
3925	1
3926	0
3927	3
3928	1
3929	6
3930	3
3931	1
3932	1
3933	0
3934	2
3935	0
3936	3
3937	1
3938	2
3939	4
3940	4
3941	2
3942	3
3943	1
3944	3
3945	1
3946	1
3947	3
3948	1
3949	2
3950	3
3951	1
3952	1
3953	4
3954	2
3955	4
3956	1
3957	2
3958	2
3959	4
3960	1
3961	2
3962	4
3963	0
3964	2
3965	1
3966	2
3967	2
3968	1
3969	3
3970	4
3971	1
3972	2
3973	1
3974	4
3975	4
3976	3
3977	3
3978	3
3979	2
3980	2
3981	1
3982	4
3983	1
3984	3
3985	3
3986	1
3987	3
3988	4
3989	5
3990	3
3991	1
3992	2
3993	1
3994	2
3995	6
3996	2
3997	0
3998	3
3999	1
4000	3
4001	3
4002	3
4003	3
4004	3
4005	3
4006	5
4007	4
4008	6
4009	0
4010	6
4011	1
4012	4
4013	0
4014	1
4015	3
4016	0
4017	3
4018	2
4019	0
4020	2
4021	2
4022	0
4023	1
4024	5
4025	2
4026	1
4027	1
4028	0
4029	1
4030	1
4031	3
4032	1
4033	4
4034	4
4035	4
4036	3
4037	3
4038	1
4039	1
4040	2
4041	2
4042	0
4043	1
4044	2
4045	5
4046	3
4047	2
4048	1
4049	2
4050	1
4051	3
4052	0
4053	3
4054	2
4055	1
4056	3
4057	1
4058	1
4059	2
4060	1
4061	1
4062	1
4063	4
4064	1
4065	2
4066	1
4067	0
4068	1
4069	0
4070	1
4071	0
4072	1
4073	1
4074	2
4075	3
4076	2
4077	2
4078	2
4079	2
4080	4
4081	6
4082	2
4083	4
4084	1
4085	0
4086	2
4087	1
4088	3
4089	0
4090	2
4091	2
4092	2
4093	3
4094	1
4095	3
4096	1
4097	7
4098	2
4099	3
4100	4
4101	5
4102	3
4103	1
4104	2
4105	1
4106	0
4107	2
4108	0
4109	2
4110	1
4111	6
4112	3
4113	1
4114	0
4115	2
4116	2
4117	0
4118	1
4119	1
4120	3
4121	2
4122	2
4123	0
4124	2
4125	1
4126	0
4127	1
4128	3
4129	1
4130	3
4131	1
4132	1
4133	2
4134	0
4135	2
4136	0
4137	2
4138	0
4139	2
4140	2
4141	5
4142	2
4143	4
4144	2
4145	5
4146	1
4147	5
4148	1
4149	2
4150	5
4151	2
4152	0
4153	2
4154	3
4155	4
4156	5
4157	3
4158	3
4159	2
4160	2
4161	0
4162	1
4163	3
4164	2
4165	2
4166	3
4167	4
4168	6
4169	1
4170	0
4171	0
4172	3
4173	2
4174	3
4175	0
4176	0
4177	0
4178	1
4179	2
4180	3
4181	2
4182	2
4183	1
4184	2
4185	1
4186	1
4187	1
4188	4
4189	0
4190	6
4191	1
4192	3
4193	1
4194	4
4195	2
4196	3
4197	2
4198	0
4199	3
4200	2
4201	1
4202	2
4203	4
4204	2
4205	2
4206	6
4207	1
4208	1
4209	4
4210	2
4211	1
4212	3
4213	3
4214	2
4215	3
4216	4
4217	3
4218	2
4219	2
4220	2
4221	2
4222	3
4223	1
4224	2
4225	3
4226	1
4227	2
4228	2
4229	1
4230	0
4231	0
4232	1
4233	0
4234	2
4235	4
4236	2
4237	3
4238	2
4239	1
4240	2
4241	2
4242	4
4243	3
4244	5
4245	1
4246	4
4247	4
4248	2
4249	2
4250	2
4251	1
4252	0
4253	4
4254	3
4255	2
4256	1
4257	1
4258	1
4259	0
4260	0
4261	3
4262	1
4263	0
4264	0
4265	2
4266	3
4267	2
4268	3
4269	3
4270	2
4271	3
4272	1
4273	4
4274	0
4275	0
4276	2
4277	3
4278	1
4279	2
4280	3
4281	2
4282	2
4283	2
4284	1
4285	0
4286	1
4287	0
4288	1
4289	2
4290	1
4291	1
4292	3
4293	2
4294	2
4295	0
4296	2
4297	1
4298	5
4299	0
4300	2
4301	2
4302	4
4303	2
4304	2
4305	2
4306	1
4307	1
4308	3
4309	3
4310	3
4311	3
4312	1
4313	1
4314	3
4315	3
4316	1
4317	1
4318	0
4319	1
4320	0
4321	0
4322	2
4323	5
4324	3
4325	2
4326	1
4327	2
4328	3
4329	2
4330	2
4331	3
4332	2
4333	1
4334	1
4335	2
4336	2
4337	3
4338	0
4339	3
4340	2
4341	1
4342	3
4343	0
4344	2
4345	1
4346	2
4347	5
4348	1
4349	0
4350	4
4351	0
4352	4
4353	1
4354	3
4355	3
4356	2
4357	1
4358	2
4359	1
4360	2
4361	2
4362	0
4363	3
4364	0
4365	1
4366	1
4367	0
4368	1
4369	1
4370	3
4371	0
4372	2
4373	1
4374	1
4375	0
4376	1
4377	3
4378	0
4379	1
4380	4
4381	2
4382	1
4383	2
4384	3
4385	1
4386	2
4387	2
4388	0
4389	1
4390	0
4391	1
4392	1
4393	0
4394	3
4395	0
4396	0
4397	1
4398	2
4399	0
4400	1
4401	2
4402	3
4403	1
4404	1
4405	1
4406	0
4407	2
4408	1
4409	0
4410	4
4411	1
4412	1
4413	1
4414	3
4415	4
4416	1
4417	1
4418	0
4419	0
4420	1
4421	0
4422	0
4423	2
4424	3
4425	1
4426	1
4427	2
4428	1
4429	4
4430	2
4431	1
4432	1
4433	0
4434	1
4435	3
4436	0
4437	2
4438	2
4439	1
4440	3
4441	1
4442	2
4443	2
4444	2
4445	0
4446	1
4447	0
4448	0
4449	2
4450	0
4451	1
4452	1
4453	0
4454	2
4455	1
4456	0
4457	2
4458	1
4459	0
4460	0
4461	2
4462	2
4463	2
4464	0
4465	3
4466	2
4467	1
4468	1
4469	1
4470	2
4471	3
4472	1
4473	2
4474	0
4475	1
4476	1
4477	1
4478	0
4479	2
4480	1
4481	1
4482	0
4483	3
4484	1
4485	2
4486	4
4487	3
4488	2
4489	4
4490	1
4491	1
4492	1
4493	0
4494	3
4495	1
4496	3
4497	1
4498	2
4499	2
4500	0
4501	2
4502	2
4503	2
4504	2
4505	0
4506	1
4507	1
4508	0
4509	3
4510	1
4511	2
4512	0
4513	2
4514	1
4515	1
4516	0
4517	2
4518	1
4519	1
4520	2
4521	0
4522	0
4523	0
4524	0
4525	1
4526	0
4527	0
4528	1
4529	0
4530	1
4531	3
4532	0
4533	1
4534	1
4535	1
4536	0
4537	1
4538	0
4539	2
4540	1
4541	3
4542	1
4543	1
4544	0
4545	1
4546	3
4547	4
4548	2
4549	3
4550	2
4551	3
4552	1
4553	0
4554	3
4555	2
4556	2
4557	1
4558	0
4559	1
4560	1
4561	2
4562	0
4563	1
4564	0
4565	1
4566	4
4567	0
4568	1
4569	1
4570	2
4571	3
4572	1
4573	1
4574	3
4575	0
4576	1
4577	1
4578	1
4579	1
4580	0
4581	0
4582	0
4583	2
4584	5
4585	1
4586	0
4587	2
4588	2
4589	2
4590	1
4591	1
4592	2
4593	2
4594	1
4595	1
4596	1
4597	1
4598	2
4599	1
4600	0
4601	2
4602	2
4603	2
4604	2
4605	1
4606	1
4607	1
4608	0
4609	0
4610	2
4611	2
4612	2
4613	1
4614	3
4615	2
4616	0
4617	2
4618	3
4619	1
4620	2
4621	1
4622	3
4623	1
4624	1
4625	2
4626	1
4627	3
4628	0
4629	2
4630	0
4631	0
4632	1
4633	1
4634	1
4635	0
4636	4
4637	1
4638	3
4639	1
4640	0
4641	2
4642	3
4643	1
4644	2
4645	0
4646	2
4647	1
4648	3
4649	2
4650	0
4651	3
4652	1
4653	2
4654	1
4655	0
4656	3
4657	1
4658	0
4659	2
4660	0
4661	0
4662	1
4663	0
4664	1
4665	3
4666	1
4667	0
4668	1
4669	2
4670	0
4671	0
4672	5
4673	2
4674	3
4675	5
4676	1
4677	3
4678	0
4679	3
4680	1
4681	1
4682	1
4683	0
4684	0
4685	1
4686	5
4687	6
4688	6
4689	7
4690	6
4691	12
4692	8
4693	12
4694	13
4695	16
4696	13
4697	12
4698	6
4699	5
4700	3
4701	5
4702	1
4703	3
4704	2
4705	2
4706	0
4707	1
4708	1
4709	0
4710	0
4711	1
4712	3
4713	0
4714	0
4715	3
4716	1
4717	1
4718	1
4719	0
4720	1
4721	1
4722	3
4723	1
4724	2
4725	0
4726	0
4727	1
4728	2
4729	0
4730	2
4731	0
4732	0
4733	0
4734	1
4735	0
4736	0
4737	0
4738	2
4739	0
4740	0
4741	1
4742	0
4743	1
4744	1
4745	0
4746	0
4747	1
4748	3
4749	0
4750	3
4751	1
4752	1
4753	1
4754	0
4755	1
4756	2
4757	2
4758	0
4759	3
4760	0
4761	0
4762	0
4763	0
4764	0
4765	1
4766	0
4767	0
4768	1
4769	1
4770	0
4771	1
4772	2
4773	1
4774	0
4775	1
4776	0
4777	0
4778	0
4779	1
4780	1
4781	0
4782	2
4783	1
4784	2
4785	0
4786	0
4787	2
4788	0
4789	1
4790	0
4791	1
4792	0
4793	0
4794	1
4795	0
4796	0
4797	1
4798	2
4799	1
4800	0
4801	3
4802	1
4803	0
4804	2
4805	2
4806	3
4807	0
4808	0
4809	2
4810	0
4811	2
4812	1
4813	0
4814	2
4815	2
4816	0
4817	3
4818	4
4819	3
4820	0
4821	4
4822	3
4823	1
4824	5
4825	2
4826	1
4827	4
4828	0
4829	0
4830	1
4831	0
4832	1
4833	2
4834	4
4835	1
4836	1
4837	2
4838	1
4839	1
4840	3
4841	2
4842	1
4843	1
4844	1
4845	3
4846	3
4847	0
4848	1
4849	1
4850	1
4851	1
4852	0
4853	1
4854	1
4855	2
4856	2
4857	1
4858	1
4859	1
4860	1
4861	0
4862	1
4863	1
4864	0
4865	0
4866	1
4867	0
4868	0
4869	1
4870	0
4871	1
4872	3
4873	0
4874	1
4875	1
4876	1
4877	1
4878	0
4879	0
4880	1
4881	0
4882	0
4883	2
4884	2
4885	1
4886	1
4887	2
4888	1
4889	1
4890	1
4891	1
4892	1
4893	0
4894	1
4895	4
4896	0
4897	0
4898	2
4899	1
4900	2
4901	0
4902	0
4903	0
4904	0
4905	2
4906	0
4907	0
4908	0
4909	0
4910	1
4911	0
4912	2
4913	3
4914	2
4915	0
4916	3
4917	1
4918	1
4919	1
4920	2
4921	1
4922	2
4923	3
4924	0
4925	0
4926	1
4927	1
4928	0
4929	1
4930	1
4931	0
4932	2
4933	1
4934	1
4935	0
4936	0
4937	1
4938	2
4939	1
4940	0
4941	1
4942	2
4943	1
4944	2
4945	2
4946	1
4947	0
4948	1
4949	0
4950	2
4951	0
4952	0
4953	0
4954	3
4955	0
4956	0
4957	1
4958	1
4959	1
4960	1
4961	2
4962	3
4963	0
4964	0
4965	0
4966	3
4967	0
4968	1
4969	0
4970	0
4971	0
4972	0
4973	1
4974	4
4975	2
4976	0
4977	1
4978	1
4979	2
4980	1
4981	2
4982	0
4983	4
4984	1
4985	0
4986	2
4987	1
4988	1
4989	0
4990	1
4991	0
4992	0
4993	1
4994	1
4995	3
4996	2
4997	0
4998	0
4999	2
5000	2
5001	0
5002	0
5003	2
5004	1
5005	1
5006	0
5007	3
5008	1
5009	2
5010	0
5011	1
5012	0
5013	3
5014	0
5015	2
5016	1
5017	1
5018	1
5019	2
5020	1
5021	2
5022	0
5023	0
5024	1
5025	0
5026	0
5027	1
5028	0
5029	1
5030	1
5031	0
5032	0
5033	3
5034	0
5035	0
5036	0
5037	2
5038	1
5039	2
5040	2
5041	1
5042	1
5043	0
5044	2
5045	0
5046	1
5047	1
5048	0
5049	1
5050	1
5051	0
5052	2
5053	0
5054	0
5055	0
5056	1
5057	0
5058	1
5059	0
5060	0
5061	1
5062	1
5063	0
5064	0
5065	0
5066	1
5067	0
5068	1
5069	1
5070	1
5071	1
5072	1
5073	1
5074	1
5075	1
5076	0
5077	3
5078	3
5079	1
5080	1
5081	1
5082	0
5083	3
5084	1
5085	2
5086	1
5087	1
5088	1
5089	1
5090	1
5091	0
5092	1
5093	3
5094	3
5095	1
5096	0
5097	2
5098	0
5099	0
5100	1
5101	2
5102	1
5103	0
5104	1
5105	0
5106	3
5107	2
5108	1
5109	0
5110	0
5111	2
5112	2
5113	1
5114	1
5115	2
5116	1
5117	0
5118	0
5119	0
5120	0
5121	0
5122	2
5123	1
5124	0
5125	0
5126	0
5127	0
5128	1
5129	1
5130	0
5131	3
5132	0
5133	1
5134	0
5135	1
5136	1
5137	0
5138	1
5139	2
5140	0
5141	1
5142	0
5143	2
5144	2
5145	0
5146	1
5147	2
5148	1
5149	2
5150	1
5151	0
5152	1
5153	1
5154	3
5155	2
5156	1
5157	0
5158	0
5159	2
5160	2
5161	0
5162	0
5163	1
5164	0
5165	0
5166	0
5167	0
5168	1
5169	2
5170	1
5171	1
5172	2
5173	1
5174	2
5175	1
5176	1
5177	1
5178	2
5179	1
5180	1
5181	0
5182	0
5183	2
5184	1
5185	2
5186	1
5187	2
5188	2
5189	3
5190	2
5191	1
5192	2
5193	0
5194	0
5195	2
5196	1
5197	3
5198	0
5199	0
5200	0
5201	1
5202	0
5203	0
5204	2
5205	2
5206	2
5207	0
5208	1
5209	1
5210	2
5211	2
5212	1
5213	2
5214	0
5215	1
5216	0
5217	1
5218	1
5219	2
5220	0
5221	0
5222	0
5223	2
5224	5
5225	3
5226	0
5227	2
5228	0
5229	3
5230	0
5231	0
5232	1
5233	0
5234	1
5235	1
5236	2
5237	0
5238	1
5239	0
5240	1
5241	1
5242	2
5243	1
5244	0
5245	1
5246	0
5247	1
5248	2
5249	1
5250	2
5251	1
5252	1
5253	1
5254	0
5255	1
5256	0
5257	2
5258	2
5259	2
5260	2
5261	0
5262	1
5263	2
5264	0
5265	2
5266	1
5267	1
5268	0
5269	2
5270	0
5271	0
5272	0
5273	2
5274	2
5275	0
5276	1
5277	1
5278	1
5279	0
5280	1
5281	0
5282	3
5283	3
5284	2
5285	0
5286	2
5287	1
5288	1
5289	1
5290	1
5291	1
5292	0
5293	1
5294	0
5295	0
5296	1
5297	0
5298	0
5299	0
5300	1
5301	3
5302	0
5303	1
5304	1
5305	0
5306	2
5307	0
5308	2
5309	0
5310	0
5311	2
5312	0
5313	4
5314	1
5315	0
5316	2
5317	2
5318	2
5319	2
5320	0
5321	0
5322	0
5323	1
5324	0
5325	3
5326	1
5327	0
5328	2
5329	0
5330	0
5331	0
5332	1
5333	0
5334	1
5335	1
5336	0
5337	0
5338	0
5339	0
5340	0
5341	1
5342	2
5343	0
5344	1
5345	1
5346	1
5347	0
5348	2
5349	0
5350	1
5351	0
5352	1
5353	0
5354	1
5355	2
5356	2
5357	3
5358	0
5359	0
5360	0
5361	0
5362	0
5363	0
5364	1
5365	1
5366	1
5367	2
5368	1
5369	1
5370	1
5371	1
5372	2
5373	1
5374	0
5375	2
5376	1
5377	0
5378	1
5379	0
5380	0
5381	0
5382	0
5383	2
5384	0
5385	1
5386	1
5387	0
5388	2
5389	0
5390	0
5391	2
5392	0
5393	1
5394	0
5395	0
5396	1
5397	0
5398	0
5399	0
5400	0
5401	0
5402	1
5403	0
5404	0
5405	3
5406	1
5407	1
5408	1
5409	2
5410	2
5411	3
5412	0
5413	1
5414	1
5415	0
5416	0
5417	3
5418	4
5419	0
5420	1
5421	2
5422	0
5423	0
5424	1
5425	1
5426	1
5427	0
5428	0
5429	3
5430	0
5431	1
5432	0
5433	0
5434	2
5435	1
5436	0
5437	2
5438	1
5439	3
5440	1
5441	1
5442	0
5443	0
5444	0
5445	2
5446	1
5447	1
5448	1
5449	1
5450	1
5451	0
5452	1
5453	0
5454	2
5455	0
5456	0
5457	0
5458	0
5459	0
5460	1
5461	1
5462	1
5463	0
5464	0
5465	2
5466	0
5467	0
5468	2
5469	1
5470	0
5471	1
5472	1
5473	0
5474	0
5475	1
5476	2
5477	1
5478	0
5479	0
5480	1
5481	1
5482	3
5483	1
5484	1
5485	1
5486	0
5487	1
5488	0
5489	1
5490	1
5491	0
5492	1
5493	0
5494	0
5495	0
5496	1
5497	5
5498	2
5499	1
5500	0
5501	0
5502	1
5503	3
5504	0
5505	1
5506	0
5507	1
5508	0
5509	1
5510	1
5511	2
5512	1
5513	0
5514	0
5515	1
5516	0
5517	1
5518	2
5519	0
5520	2
5521	1
5522	1
5523	2
5524	0
5525	0
5526	0
5527	1
5528	1
5529	2
5530	1
5531	0
5532	1
5533	2
5534	0
5535	0
5536	0
5537	0
5538	0
5539	0
5540	2
5541	0
5542	2
5543	1
5544	0
5545	1
5546	0
5547	0
5548	1
5549	1
5550	1
5551	0
5552	1
5553	0
5554	3
5555	0
5556	0
5557	2
5558	0
5559	0
5560	0
5561	1
5562	2
5563	0
5564	2
5565	1
5566	1
5567	0
5568	0
5569	1
5570	0
5571	1
5572	1
5573	0
5574	2
5575	0
5576	1
5577	2
5578	1
5579	1
5580	0
5581	0
5582	0
5583	2
5584	1
5585	1
5586	0
5587	0
5588	0
5589	0
5590	0
5591	1
5592	0
5593	2
5594	1
5595	1
5596	0
5597	1
5598	1
5599	2
5600	0
5601	0
5602	0
5603	1
5604	0
5605	0
5606	4
5607	2
5608	0
5609	1
5610	2
5611	0
5612	1
5613	2
5614	1
5615	1
5616	1
5617	1
5618	1
5619	1
5620	0
5621	0
5622	1
5623	1
5624	1
5625	1
5626	0
5627	2
5628	1
5629	0
5630	1
5631	0
5632	1
5633	3
5634	2
5635	1
5636	0
5637	1
5638	0
5639	3
5640	3
5641	1
5642	0
5643	2
5644	0
5645	0
5646	0
5647	0
5648	2
5649	1
5650	1
5651	1
5652	0
5653	0
5654	3
5655	1
5656	0
5657	1
5658	0
5659	1
5660	2
5661	1
5662	2
5663	0
5664	2
5665	0
5666	0
5667	2
5668	0
5669	0
5670	2
5671	2
5672	1
5673	2
5674	0
5675	0
5676	1
5677	3
5678	2
5679	0
5680	3
5681	1
5682	1
5683	0
5684	3
5685	1
5686	2
5687	1
5688	0
5689	1
5690	1
5691	2
5692	1
5693	1
5694	2
5695	0
5696	1
5697	1
5698	2
5699	0
5700	1
5701	0
5702	0
5703	0
5704	0
5705	1
5706	1
5707	1
5708	0
5709	1
5710	2
5711	0
5712	1
5713	2
5714	1
5715	1
5716	0
5717	2
5718	2
5719	2
5720	0
5721	0
5722	0
5723	0
5724	0
5725	0
5726	0
5727	0
5728	0
5729	1
5730	0
5731	2
5732	2
5733	1
5734	0
5735	0
5736	0
5737	1
5738	0
5739	2
5740	0
5741	0
5742	0
5743	2
5744	0
5745	2
5746	0
5747	3
5748	2
5749	2
5750	2
5751	0
5752	2
5753	2
5754	0
5755	2
5756	1
5757	1
5758	0
5759	2
5760	0
5761	0
5762	0
5763	0
5764	0
5765	0
5766	1
5767	1
5768	2
5769	2
5770	0
5771	1
5772	1
5773	1
5774	0
5775	0
5776	2
5777	1
5778	1
5779	2
5780	3
5781	5
5782	1
5783	3
5784	1
5785	1
5786	1
5787	2
5788	2
5789	1
5790	1
5791	1
5792	2
5793	0
5794	0
5795	3
5796	0
5797	0
5798	1
5799	1
5800	0
5801	1
5802	2
5803	2
5804	2
5805	0
5806	3
5807	4
5808	0
5809	0
5810	1
5811	1
5812	1
5813	1
5814	1
5815	1
5816	0
5817	1
5818	0
5819	0
5820	1
5821	1
5822	4
5823	2
5824	0
5825	0
5826	1
5827	1
5828	1
5829	0
5830	1
5831	0
5832	1
5833	0
5834	2
5835	0
5836	0
5837	0
5838	0
5839	2
5840	2
5841	1
5842	2
5843	1
5844	1
5845	0
5846	0
5847	0
5848	2
5849	1
5850	0
5851	2
5852	2
5853	0
5854	0
5855	0
5856	2
5857	0
5858	1
5859	2
5860	0
5861	2
5862	1
5863	0
5864	0
5865	0
5866	0
5867	0
5868	0
5869	2
5870	1
5871	0
5872	3
5873	2
5874	1
5875	0
5876	2
5877	2
5878	1
5879	1
5880	1
5881	0
5882	3
5883	1
5884	2
5885	2
5886	1
5887	0
5888	4
5889	3
5890	2
5891	2
5892	2
5893	0
5894	0
5895	0
5896	2
5897	2
5898	0
5899	1
5900	2
5901	0
5902	1
5903	2
5904	3
5905	2
5906	1
5907	2
5908	0
5909	2
5910	2
5911	0
5912	0
5913	1
5914	2
5915	0
5916	0
5917	1
5918	2
5919	1
5920	2
5921	1
5922	1
5923	0
5924	2
5925	0
5926	2
5927	0
5928	1
5929	0
5930	1
5931	2
5932	2
5933	0
5934	0
5935	1
5936	1
5937	1
5938	1
5939	3
5940	1
5941	1
5942	1
5943	0
5944	1
5945	0
5946	0
5947	0
5948	2
5949	4
5950	1
5951	1
5952	1
5953	1
5954	1
5955	0
5956	2
5957	0
5958	0
5959	0
5960	1
5961	0
5962	1
5963	0
5964	1
5965	1
5966	1
5967	1
5968	0
5969	0
5970	1
5971	2
5972	2
5973	2
5974	3
5975	0
5976	1
5977	1
5978	1
5979	3
5980	4
5981	0
5982	3
5983	1
5984	1
5985	0
5986	1
5987	1
5988	0
5989	1
5990	2
5991	1
5992	0
5993	2
5994	1
5995	2
5996	1
5997	0
5998	0
5999	1
6000	0
6001	2
6002	2
6003	1
6004	1
6005	5
6006	0
6007	1
6008	1
6009	0
6010	1
6011	0
6012	1
6013	0
6014	0
6015	0
6016	2
6017	1
6018	1
6019	1
6020	1
6021	0
6022	0
6023	1
6024	0
6025	0
6026	1
6027	1
6028	1
6029	1
6030	1
6031	0
6032	0
6033	1
6034	0
6035	1
6036	0
6037	1
6038	1
6039	0
6040	1
6041	1
6042	0
6043	0
6044	0
6045	1
6046	0
6047	1
6048	0
6049	0
6050	0
6051	2
6052	0
6053	0
6054	1
6055	0
6056	0
6057	2
6058	1
6059	1
6060	1
6061	0
6062	0
6063	0
6064	0
6065	0
6066	2
6067	0
6068	0
6069	0
6070	1
6071	1
6072	1
6073	0
6074	3
6075	3
6076	0
6077	0
6078	0
6079	1
6080	1
6081	0
6082	0
6083	0
6084	0
6085	0
6086	0
6087	0
6088	0
6089	0
6090	0
6091	1
6092	0
6093	0
6094	0
6095	0
6096	1
6097	3
6098	1
6099	1
6100	0
6101	0
6102	1
6103	1
6104	0
6105	0
6106	0
6107	1
6108	0
6109	1
6110	0
6111	0
6112	0
6113	1
6114	1
6115	1
6116	1
6117	3
6118	0
6119	1
6120	1
6121	0
6122	1
6123	0
6124	0
6125	0
6126	0
6127	1
6128	1
6129	1
6130	1
6131	1
6132	0
6133	1
6134	0
6135	0
6136	0
6137	0
6138	1
6139	0
6140	1
6141	0
6142	1
6143	0
6144	0
6145	0
6146	0
6147	0
6148	0
6149	2
6150	0
6151	0
6152	0
6153	1
6154	0
6155	1
6156	0
6157	0
6158	0
6159	0
6160	1
6161	1
6162	2
6163	0
6164	2
6165	0
6166	0
6167	0
6168	0
6169	0
6170	2
6171	1
6172	1
6173	1
6174	1
6175	2
6176	0
6177	0
6178	0
6179	0
6180	0
6181	1
6182	0
6183	0
6184	0
6185	0
6186	1
6187	2
6188	0
6189	1
6190	0
6191	1
6192	0
6193	1
6194	0
6195	1
6196	0
6197	0
6198	1
6199	1
6200	0
6201	1
6202	0
6203	0
6204	0
6205	2
6206	0
6207	0
6208	0
6209	1
6210	0
6211	1
6212	0
6213	1
6214	0
6215	0
6216	0
6217	0
6218	0
6219	1
6220	1
6221	2
6222	0
6223	1
6224	0
6225	0
6226	0
6227	1
6228	0
6229	0
6230	0
6231	0
6232	0
6233	0
6234	1
6235	0
6236	0
6237	0
6238	0
6239	2
6240	0
6241	0
6242	0
6243	0
6244	0
6245	0
6246	0
6247	0
6248	0
6249	2
6250	0
6251	0
6252	1
6253	1
6254	0
6255	0
6256	0
6257	0
6258	0
6259	2
6260	0
6261	0
6262	0
6263	0
6264	0
6265	1
6266	0
6267	0
6268	0
6269	0
6270	0
6271	0
6272	0
6273	0
6274	0
6275	0
6276	0
6277	0
6278	1
6279	0
6280	0
6281	0
6282	1
6283	1
6284	1
6285	0
6286	0
6287	0
6288	0
6289	0
6290	0
6291	0
6292	0
6293	0
6294	0
6295	0
6296	0
6297	0
6298	1
6299	0
6300	0
6301	0
6302	0
6303	1
6304	0
6305	2
6306	0
6307	1
6308	0
6309	0
6310	0
6311	0
6312	0
6313	0
6314	0
6315	0
6316	0
6317	0
6318	0
6319	0
6320	0
6321	0
6322	0
6323	0
6324	0
6325	1
6326	0
6327	0
6328	0
6329	0
6330	0
6331	0
6332	0
6333	0
6334	0
6335	0
6336	1
6337	0
6338	0
6339	0
6340	0
6341	0
6342	0
6343	0
6344	0
6345	0
6346	1
6347	0
6348	0
6349	0
6350	0
6351	0
6352	0
6353	0
6354	0
6355	1
6356	0
6357	0
6358	0
6359	0
6360	0
6361	0
6362	0
6363	1
6364	0
6365	0
6366	0
6367	0
6368	0
6369	0
6370	0
6371	0
6372	1
6373	1
6374	0
6375	0
6376	0
6377	0
6378	0
6379	0
6380	0
6381	0
6382	0
6383	0
6384	1
6385	2
6386	0
6387	0
6388	0
6389	0
6390	0
6391	0
6392	0
6393	0
6394	0
6395	0
6396	0
6397	0
6398	0
6399	0
6400	1
6401	0
6402	0
6403	0
6404	0
6405	1
6406	0
6407	1
6408	0
6409	1
6410	0
6411	0
6412	0
6413	0
6414	0
6415	1
6416	0
6417	1
6418	0
6419	0
6420	0
6421	0
6422	1
6423	0
6424	0
6425	0
6426	0
6427	0
6428	0
6429	1
6430	0
6431	0
6432	0
6433	0
6434	0
6435	0
6436	0
6437	1
6438	0
6439	0
6440	0
6441	1
6442	0
6443	0
6444	0
6445	0
6446	0
6447	0
6448	0
6449	0
6450	0
6451	1
6452	0
6453	0
6454	0
6455	0
6456	0
6457	0
6458	0
6459	0
6460	0
6461	0
6462	1
6463	0
6464	0
6465	0
6466	0
6467	0
6468	0
6469	0
6470	1
6471	0
6472	0
6473	1
6474	0
6475	0
6476	0
6477	0
6478	0
6479	1
6480	0
6481	0
6482	0
6483	0
6484	0
6485	0
6486	0
6487	0
6488	1
6489	0
6490	0
6491	0
6492	0
6493	0
6494	0
6495	0
6496	0
6497	2
6498	0
6499	0
6500	0
6501	1
6502	0
6503	0
6504	0
6505	0
6506	0
6507	0
6508	0
6509	0
6510	0
6511	0
6512	1
6513	1
6514	0
6515	0
6516	0
6517	0
6518	0
6519	0
6520	0
6521	0
6522	0
6523	0
6524	0
6525	0
6526	0
6527	0
6528	0
6529	0
6530	0
6531	0
6532	0
6533	0
6534	0
6535	0
6536	0
6537	0
6538	0
6539	0
6540	0
6541	0
6542	0
6543	0
6544	0
6545	1
6546	0
6547	0
6548	0
6549	0
6550	0
6551	0
6552	2
6553	2
6554	3
6555	3
6556	15
6557	19
6558	26
6559	21
6560	33
6561	19
6562	22
6563	14
6564	14
6565	6
6566	0
6567	2
6568	0
6569	1
6570	0
6571	0
6572	0
6573	0
6574	0
6575	0
6576	0
6577	0
6578	0
6579	0
6580	0
6581	0
6582	0
6583	0
6584	0
6585	0
6586	0
6587	0
6588	0
6589	0
6590	0
6591	0
6592	0
6593	0
6594	0
6595	0
6596	0
6597	0
6598	0
6599	0
6600	0
6601	1
6602	0
6603	0
6604	0
6605	1
6606	0
6607	1
6608	0
6609	0
6610	0
6611	0
6612	0
6613	0
6614	0
6615	0
6616	0
6617	0
6618	1
6619	0
6620	0
6621	0
6622	1
6623	0
6624	0
6625	0
6626	0
6627	0
6628	0
6629	0
6630	0
6631	0
6632	0
6633	0
6634	0
6635	0
6636	0
6637	0
6638	0
6639	0
6640	0
6641	0
6642	0
6643	0
6644	0
6645	1
6646	0
6647	0
6648	0
6649	0
6650	0
6651	0
6652	0
6653	0
6654	0
6655	0
6656	0
6657	0
6658	0
6659	0
6660	0
6661	0
6662	0
6663	0
6664	0
6665	0
6666	0
6667	0
6668	0
6669	0
6670	0
6671	0
6672	0
6673	0
6674	0
6675	0
6676	0
6677	0
6678	0
6679	0
6680	0
6681	0
6682	0
6683	1
6684	0
6685	0
6686	0
6687	0
6688	0
6689	0
6690	0
6691	0
6692	0
6693	0
6694	0
6695	0
6696	0
6697	0
6698	0
6699	0
6700	0
6701	0
6702	0
6703	0
6704	0
6705	0
6706	0
6707	0
6708	0
6709	0
6710	0
6711	0
6712	0
6713	0
6714	0
6715	0
6716	0
6717	0
6718	0
6719	0
6720	0
6721	0
6722	0
6723	0
6724	0
6725	0
6726	0
6727	0
6728	0
6729	0
6730	0
6731	0
6732	0
6733	0
6734	0
6735	0
6736	0
6737	0
6738	0
6739	0
6740	0
6741	0
6742	0
6743	0
6744	0
6745	0
6746	0
6747	0
6748	0
6749	0
6750	0
6751	0
6752	0
6753	0
6754	0
6755	0
6756	0
6757	0
6758	0
6759	0
6760	0
6761	0
6762	0
6763	0
6764	0
6765	0
6766	0
6767	0
6768	0
6769	0
6770	0
6771	0
6772	0
6773	0
6774	0
6775	0
6776	0
6777	0
6778	0
6779	0
6780	0
6781	0
6782	0
6783	0
6784	0
6785	0
6786	0
6787	0
6788	0
6789	0
6790	0
6791	0
6792	0
6793	0
6794	0
6795	0
6796	0
6797	0
6798	0
6799	0
6800	0
6801	0
6802	0
6803	0
6804	0
6805	0
6806	0
6807	0
6808	0
6809	0
6810	0
6811	0
6812	0
6813	0
6814	0
6815	0
6816	0
6817	0
6818	0
6819	0
6820	0
6821	0
6822	0
6823	0
6824	0
6825	0
6826	0
6827	0
6828	0
6829	0
6830	0
6831	0
6832	0
6833	0
6834	0
6835	0
6836	0
6837	1
6838	0
6839	0
6840	2
6841	0
6842	2
6843	1
6844	0
6845	1
6846	0
6847	0
6848	0
6849	0
6850	0
6851	0
6852	0
6853	0
6854	0
6855	0
6856	0
6857	0
6858	0
6859	0
6860	0
6861	0
6862	0
6863	0
6864	0
6865	0
6866	0
6867	0
6868	0
6869	0
6870	0
6871	0
6872	0
6873	0
6874	0
6875	0
6876	0
6877	0
6878	0
6879	0
6880	0
6881	0
6882	0
6883	0
6884	0
6885	0
6886	0
6887	0
6888	0
6889	0
6890	0
6891	0
6892	0
6893	0
6894	0
6895	0
6896	0
6897	0
6898	0
6899	0
6900	0
6901	0
6902	0
6903	0
6904	0
6905	0
6906	1
6907	0
6908	0
6909	1
6910	0
6911	0
6912	0
6913	0
6914	0
6915	0
6916	0
6917	0
6918	0
6919	0
6920	0
6921	0
6922	0
6923	0
6924	0
6925	0
6926	0
6927	0
6928	0
6929	0
6930	0
6931	0
6932	0
6933	0
6934	0
6935	0
6936	0
6937	0
6938	0
6939	0
6940	0
6941	1
6942	0
6943	0
6944	0
6945	0
6946	0
6947	0
6948	0
6949	0
6950	0
6951	0
6952	0
6953	0
6954	0
6955	0
6956	0
6957	0
6958	0
6959	0
6960	0
6961	0
6962	0
6963	0
6964	0
6965	0
6966	0
6967	0
6968	0
6969	0
6970	0
6971	0
6972	0
6973	0
6974	0
6975	0
6976	0
6977	0
6978	0
6979	0
6980	0
6981	0
6982	0
6983	0
6984	0
6985	0
6986	0
6987	0
6988	0
6989	0
6990	0
6991	0
6992	0
6993	0
6994	0
6995	0
6996	0
6997	0
6998	0
6999	0
7000	0
7001	0
7002	0
7003	0
7004	0
7005	0
7006	0
7007	0
7008	0
7009	0
7010	0
7011	0
7012	0
7013	0
7014	0
7015	0
7016	0
7017	0
7018	0
7019	0
7020	1
7021	0
7022	0
7023	0
7024	0
7025	0
7026	0
7027	0
7028	0
7029	0
7030	1
7031	0
7032	0
7033	0
7034	0
7035	0
7036	0
7037	0
7038	0
7039	0
7040	0
7041	0
7042	0
7043	0
7044	0
7045	0
7046	0
7047	0
7048	0
7049	0
7050	0
7051	0
7052	0
7053	0
7054	0
7055	0
7056	0
7057	0
7058	0
7059	0
7060	0
7061	0
7062	0
7063	0
7064	0
7065	0
7066	0
7067	0
7068	0
7069	0
7070	0
7071	0
7072	0
7073	0
7074	0
7075	0
7076	0
7077	0
7078	0
7079	1
7080	0
7081	0
7082	0
7083	0
7084	0
7085	0
7086	0
7087	0
7088	0
7089	0
7090	0
7091	0
7092	0
7093	0
7094	0
7095	0
7096	0
7097	0
7098	0
7099	0
7100	0
7101	0
7102	0
7103	0
7104	0
7105	0
7106	0
7107	0
7108	0
7109	0
7110	0
7111	0
7112	0
7113	1
7114	0
7115	0
7116	0
7117	0
7118	0
7119	0
7120	0
7121	0
7122	0
7123	0
7124	0
7125	0
7126	0
7127	0
7128	0
7129	0
7130	0
7131	0
7132	0
7133	0
7134	0
7135	0
7136	0
7137	1
7138	0
7139	0
7140	0
7141	0
7142	0
7143	0
7144	0
7145	0
7146	0
7147	0
7148	0
7149	0
7150	0
7151	0
7152	0
7153	0
7154	0
7155	0
7156	0
7157	0
7158	0
7159	0
7160	0
7161	0
7162	0
7163	0
7164	0
7165	0
7166	0
7167	0
7168	0
7169	0
7170	0
7171	0
7172	0
7173	0
7174	0
7175	0
7176	0
7177	0
7178	0
7179	0
7180	0
7181	0
7182	0
7183	0
7184	0
7185	0
7186	0
7187	0
7188	0
7189	0
7190	0
7191	0
7192	0
7193	0
7194	0
7195	0
7196	0
7197	0
7198	0
7199	0
7200	0
7201	0
7202	0
7203	0
7204	0
7205	0
7206	0
7207	0
7208	0
7209	0
7210	0
7211	0
7212	0
7213	0
7214	0
7215	0
7216	0
7217	0
7218	0
7219	0
7220	0
7221	0
7222	0
7223	0
7224	0
7225	0
7226	0
7227	0
7228	0
7229	0
7230	0
7231	0
7232	0
7233	0
7234	0
7235	0
7236	0
7237	0
7238	0
7239	0
7240	0
7241	0
7242	0
7243	0
7244	0
7245	0
7246	0
7247	0
7248	0
7249	0
7250	0
7251	0
7252	0
7253	0
7254	0
7255	0
7256	0
7257	0
7258	0
7259	0
7260	0
7261	0
7262	0
7263	0
7264	0
7265	0
7266	0
7267	0
7268	0
7269	0
7270	0
7271	0
7272	0
7273	0
7274	0
7275	0
7276	0
7277	0
7278	0
7279	0
7280	0
7281	0
7282	0
7283	0
7284	0
7285	0
7286	0
7287	0
7288	0
7289	0
7290	0
7291	0
7292	0
7293	0
7294	0
7295	0
7296	0
7297	0
7298	0
7299	1
7300	0
7301	0
7302	0
7303	0
7304	0
7305	0
7306	0
7307	0
7308	0
7309	0
7310	0
7311	0
7312	0
7313	0
7314	0
7315	0
7316	0
7317	0
7318	0
7319	0
7320	0
7321	0
7322	0
7323	0
7324	0
7325	0
7326	0
7327	0
7328	0
7329	0
7330	0
7331	0
7332	0
7333	0
7334	0
7335	0
7336	0
7337	0
7338	0
7339	0
7340	0
7341	0
7342	1
7343	0
7344	0
7345	0
7346	0
7347	0
7348	0
7349	0
7350	0
7351	0
7352	0
7353	0
7354	0
7355	0
7356	0
7357	0
7358	1
7359	0
7360	0
7361	0
7362	0
7363	0
7364	0
7365	0
7366	0
7367	0
7368	0
7369	0
7370	0
7371	0
7372	0
7373	0
7374	0
7375	0
7376	0
7377	0
7378	0
7379	0
7380	0
7381	0
7382	0
7383	0
7384	0
7385	0
7386	0
7387	0
7388	0
7389	0
7390	0
7391	0
7392	0
7393	0
7394	0
7395	0
7396	0
7397	0
7398	0
7399	0
7400	0
7401	0
7402	0
7403	0
7404	0
7405	0
7406	0
7407	0
7408	0
7409	0
7410	0
7411	0
7412	0
7413	0
7414	0
7415	0
7416	0
7417	0
7418	0
7419	0
7420	0
7421	0
7422	0
7423	0
7424	0
7425	0
7426	0
7427	0
7428	0
7429	0
7430	0
7431	0
7432	0
7433	0
7434	0
7435	0
7436	0
7437	0
7438	0
7439	0
7440	0
7441	0
7442	0
7443	0
7444	0
7445	0
7446	0
7447	0
7448	0
7449	0
7450	0
7451	0
7452	0
7453	0
7454	0
7455	0
7456	0
7457	0
7458	0
7459	0
7460	1
7461	0
7462	0
7463	0
7464	0
7465	0
7466	0
7467	0
7468	0
7469	0
7470	0
7471	0
7472	0
7473	0
7474	0
7475	0
7476	0
7477	0
7478	0
7479	0
7480	0
7481	0
7482	0
7483	0
7484	0
7485	0
7486	0
7487	0
7488	0
7489	0
7490	0
7491	0
7492	0
7493	0
7494	0
7495	0
7496	0
7497	0
7498	0
7499	0
7500	0
7501	0
7502	0
7503	0
7504	0
7505	0
7506	0
7507	0
7508	0
7509	0
7510	0
7511	0
7512	0
7513	0
7514	0
7515	0
7516	0
7517	0
7518	0
7519	0
7520	0
7521	0
7522	0
7523	0
7524	0
7525	0
7526	0
7527	0
7528	0
7529	0
7530	0
7531	0
7532	0
7533	0
7534	0
7535	0
7536	0
7537	0
7538	0
7539	0
7540	0
7541	0
7542	0
7543	0
7544	0
7545	0
7546	0
7547	0
7548	0
7549	0
7550	0
7551	0
7552	0
7553	0
7554	0
7555	0
7556	0
7557	0
7558	0
7559	0
7560	0
7561	0
7562	0
7563	0
7564	0
7565	0
7566	0
7567	0
7568	0
7569	0
7570	1
7571	0
7572	0
7573	0
7574	0
7575	0
7576	0
7577	0
7578	0
7579	0
7580	0
7581	0
7582	0
7583	0
7584	0
7585	0
7586	0
7587	0
7588	0
7589	0
7590	0
7591	0
7592	0
7593	0
7594	0
7595	0
7596	0
7597	0
7598	0
7599	0
7600	0
7601	0
7602	0
7603	0
7604	0
7605	0
7606	0
7607	0
7608	0
7609	0
7610	0
7611	0
7612	0
7613	0
7614	0
7615	0
7616	0
7617	0
7618	0
7619	0
7620	0
7621	0
7622	0
7623	0
7624	0
7625	0
7626	0
7627	0
7628	0
7629	0
7630	0
7631	0
7632	0
7633	0
7634	0
7635	0
7636	0
7637	0
7638	0
7639	0
7640	0
7641	0
7642	0
7643	0
7644	0
7645	0
7646	1
7647	0
7648	0
7649	0
7650	0
7651	0
7652	0
7653	0
7654	0
7655	0
7656	0
7657	0
7658	0
7659	0
7660	0
7661	0
7662	0
7663	0
7664	0
7665	0
7666	0
7667	0
7668	0
7669	0
7670	0
7671	0
7672	0
7673	0
7674	0
7675	0
7676	0
7677	0
7678	0
7679	0
7680	0
7681	0
7682	0
7683	0
7684	0
7685	0
7686	0
7687	0
7688	0
7689	0
7690	0
7691	0
7692	0
7693	0
7694	0
7695	0
7696	0
7697	0
7698	0
7699	0
7700	0
7701	0
7702	0
7703	0
7704	0
7705	0
7706	0
7707	0
7708	0
7709	0
7710	0
7711	0
7712	0
7713	0
7714	0
7715	0
7716	0
7717	0
7718	0
7719	0
7720	0
7721	0
7722	0
7723	0
7724	0
7725	0
7726	0
7727	0
7728	0
7729	0
7730	0
7731	0
7732	0
7733	0
7734	0
7735	1
7736	0
7737	0
7738	0
7739	0
7740	0
7741	0
7742	1
7743	0
7744	0
7745	0
7746	0
7747	0
7748	0
7749	0
7750	0
7751	0
7752	0
7753	0
7754	0
7755	0
7756	0
7757	0
7758	0
7759	0
7760	0
7761	0
7762	0
7763	0
7764	0
7765	0
7766	0
7767	0
7768	0
7769	0
7770	0
7771	0
7772	0
7773	0
7774	0
7775	0
7776	0
7777	0
7778	0
7779	0
7780	0
7781	0
7782	0
7783	1
7784	0
7785	0
7786	0
7787	0
7788	0
7789	0
7790	0
7791	0
7792	0
7793	0
7794	0
7795	0
7796	0
7797	0
7798	0
7799	0
7800	0
7801	0
7802	0
7803	0
7804	0
7805	0
7806	0
7807	0
7808	0
7809	0
7810	0
7811	0
7812	0
7813	0
7814	0
7815	0
7816	0
7817	0
7818	0
7819	0
7820	0
7821	0
7822	0
7823	0
7824	0
7825	0
7826	0
7827	0
7828	0
7829	0
7830	0
7831	0
7832	0
7833	0
7834	1
7835	0
7836	0
7837	0
7838	0
7839	0
7840	0
7841	0
7842	0
7843	0
7844	0
7845	0
7846	0
7847	0
7848	0
7849	0
7850	0
7851	0
7852	0
7853	0
7854	0
7855	0
7856	0
7857	0
7858	0
7859	0
7860	0
7861	0
7862	0
7863	0
7864	0
7865	0
7866	0
7867	0
7868	0
7869	0
7870	0
7871	0
7872	0
7873	0
7874	0
7875	0
7876	0
7877	0
7878	0
7879	0
7880	0
7881	0
7882	0
7883	0
7884	0
7885	0
7886	0
7887	0
7888	0
7889	0
7890	0
7891	0
7892	0
7893	0
7894	0
7895	0
7896	0
7897	0
7898	0
7899	0
7900	1
7901	0
7902	0
7903	0
7904	0
7905	0
7906	0
7907	0
7908	0
7909	0
7910	0
7911	0
7912	0
7913	0
7914	0
7915	0
7916	0
7917	0
7918	0
7919	0
7920	0
7921	0
7922	0
7923	0
7924	0
7925	0
7926	0
7927	0
7928	0
7929	0
7930	0
7931	0
7932	0
7933	0
7934	0
7935	0
7936	0
7937	0
7938	0
7939	0
7940	0
7941	0
7942	1
7943	0
7944	0
7945	0
7946	0
7947	0
7948	0
7949	0
7950	0
7951	0
7952	0
7953	0
7954	0
7955	0
7956	0
7957	0
7958	0
7959	0
7960	0
7961	0
7962	0
7963	0
7964	0
7965	0
7966	0
7967	0
7968	0
7969	0
7970	0
7971	0
7972	0
7973	0
7974	0
7975	0
7976	0
7977	0
7978	0
7979	0
7980	0
7981	0
7982	0
7983	0
7984	0
7985	0
7986	0
7987	0
7988	0
7989	0
7990	0
7991	0
7992	0
7993	0
7994	0
7995	0
7996	0
7997	0
7998	0
7999	0
8000	0
8001	0
8002	0
8003	0
8004	0
8005	0
8006	0
8007	0
8008	0
8009	0
8010	0
8011	0
8012	0
8013	0
8014	0
8015	0
8016	0
8017	0
8018	0
8019	0
8020	0
8021	0
8022	0
8023	0
8024	0
8025	0
8026	0
8027	0
8028	0
8029	0
8030	0
8031	0
8032	0
8033	0
8034	0
8035	0
8036	1
8037	0
8038	0
8039	0
8040	0
8041	0
8042	0
8043	0
8044	0
8045	0
8046	0
8047	0
8048	0
8049	0
8050	0
8051	0
8052	0
8053	0
8054	0
8055	0
8056	0
8057	1
8058	0
8059	0
8060	0
8061	0
8062	0
8063	0
8064	0
8065	0
8066	0
8067	0
8068	0
8069	0
8070	0
8071	0
8072	0
8073	0
8074	0
8075	0
8076	0
8077	0
8078	0
8079	0
8080	0
8081	0
8082	0
8083	0
8084	0
8085	0
8086	0
8087	0
8088	0
8089	0
8090	0
8091	0
8092	0
8093	0
8094	0
8095	0
8096	0
8097	0
8098	0
8099	0
8100	0
8101	0
8102	0
8103	0
8104	0
8105	0
8106	0
8107	0
8108	0
8109	0
8110	0
8111	0
8112	0
8113	0
8114	0
8115	0
8116	0
8117	0
8118	0
8119	0
8120	0
8121	0
8122	0
8123	0
8124	0
8125	0
8126	0
8127	0
8128	0
8129	0
8130	0
8131	0
8132	0
8133	0
8134	0
8135	0
8136	0
8137	0
8138	0
8139	0
8140	0
8141	0
8142	0
8143	0
8144	0
8145	0
8146	0
8147	0
8148	0
8149	0
8150	0
8151	0
8152	0
8153	0
8154	0
8155	0
8156	0
8157	0
8158	0
8159	0
8160	0
8161	0
8162	0
8163	0
8164	0
8165	0
8166	0
8167	0
8168	0
8169	0
8170	0
8171	0
8172	0
8173	0
8174	0
8175	0
8176	0
8177	0
8178	0
8179	0
8180	0
8181	0
8182	0
8183	0
8184	0
8185	0
8186	0
8187	0
8188	0
8189	0
8190	0
8191	0
