0	0
1	0
2	0
3	0
4	0
5	0
6	0
7	0
8	0
9	0
10	0
11	0
12	0
13	0
14	20
15	1704
16	1766
17	1608
18	1412
19	1225
20	1112
21	1008
22	957
23	960
24	1061
25	1010
26	1041
27	943
28	984
29	939
30	939
31	942
32	975
33	1031
34	944
35	1017
36	950
37	998
38	945
39	1014
40	961
41	962
42	953
43	1035
44	982
45	938
46	977
47	954
48	973
49	952
50	970
51	956
52	938
53	915
54	987
55	998
56	1061
57	991
58	1016
59	958
60	939
61	956
62	1028
63	1027
64	1032
65	1066
66	1106
67	1069
68	1082
69	1152
70	1137
71	1188
72	1127
73	1237
74	1159
75	1219
76	1233
77	1197
78	1211
79	1220
80	1189
81	1203
82	1178
83	1119
84	1111
85	1121
86	1145
87	1194
88	1116
89	1112
90	1155
91	1150
92	1129
93	1104
94	1161
95	1119
96	1061
97	1149
98	1141
99	1112
100	1102
101	1023
102	1104
103	1141
104	1065
105	1089
106	1092
107	1033
108	1099
109	1048
110	1085
111	1027
112	1015
113	994
114	1074
115	1088
116	1007
117	1033
118	1003
119	1053
120	1006
121	992
122	990
123	998
124	952
125	996
126	986
127	1017
128	916
129	1002
130	1026
131	962
132	1009
133	915
134	965
135	958
136	959
137	936
138	1019
139	897
140	971
141	1009
142	920
143	964
144	967
145	959
146	942
147	925
148	939
149	909
150	957
151	977
152	924
153	942
154	927
155	975
156	914
157	925
158	945
159	980
160	922
161	979
162	902
163	915
164	968
165	909
166	922
167	882
168	933
169	933
170	981
171	935
172	949
173	902
174	926
175	937
176	903
177	945
178	872
179	881
180	956
181	938
182	912
183	903
184	895
185	930
186	911
187	899
188	980
189	839
190	876
191	894
192	844
193	931
194	896
195	836
196	898
197	949
198	875
199	889
200	861
201	890
202	860
203	894
204	928
205	907
206	990
207	897
208	926
209	948
210	838
211	858
212	941
213	927
214	817
215	841
216	880
217	893
218	909
219	931
220	822
221	883
222	882
223	853
224	870
225	881
226	864
227	867
228	902
229	868
230	844
231	855
232	854
233	891
234	862
235	897
236	910
237	859
238	889
239	861
240	803
241	849
242	832
243	857
244	923
245	914
246	904
247	875
248	928
249	933
250	881
251	891
252	843
253	896
254	934
255	896
256	879
257	879
258	842
259	872
260	881
261	824
262	823
263	898
264	846
265	902
266	833
267	841
268	825
269	850
270	816
271	803
272	778
273	789
274	775
275	815
276	783
277	815
278	801
279	806
280	859
281	820
282	807
283	783
284	769
285	783
286	738
287	779
288	800
289	801
290	773
291	766
292	704
293	767
294	755
295	748
296	720
297	720
298	746
299	658
300	726
301	659
302	632
303	674
304	655
305	678
306	619
307	635
308	630
309	614
310	609
311	561
312	591
313	582
314	568
315	577
316	594
317	574
318	567
319	589
320	570
321	610
322	598
323	613
324	618
325	669
326	687
327	743
328	759
329	826
330	926
331	988
332	1061
333	1158
334	1216
335	1314
336	1417
337	1580
338	1721
339	1922
340	2056
341	2238
342	2420
343	2726
344	2915
345	3115
346	3257
347	3629
348	3739
349	4119
350	4270
351	4549
352	4890
353	5017
354	5255
355	5433
356	5753
357	5854
358	5905
359	6093
360	6257
361	6273
362	6277
363	6364
364	6322
365	6302
366	6120
367	6035
368	5883
369	5910
370	5782
371	5444
372	5352
373	5267
374	4831
375	4594
376	4510
377	4233
378	4188
379	3946
380	3876
381	3681
382	3542
383	3413
384	3350
385	3173
386	3161
387	3175
388	3027
389	3110
390	3144
391	3098
392	3251
393	3299
394	3483
395	3625
396	3682
397	3778
398	3914
399	4022
400	4183
401	4328
402	4538
403	4718
404	4797
405	4958
406	4934
407	5163
408	5156
409	5083
410	5176
411	5213
412	5221
413	5252
414	5083
415	5158
416	5025
417	4953
418	4796
419	4638
420	4566
421	4306
422	4161
423	4015
424	3817
425	3714
426	3428
427	3257
428	3048
429	2921
430	2650
431	2539
432	2355
433	2148
434	1998
435	1909
436	1773
437	1546
438	1417
439	1301
440	1228
441	1113
442	1035
443	938
444	848
445	738
446	759
447	669
448	619
449	556
450	555
451	493
452	441
453	461
454	442
455	409
456	344
457	351
458	328
459	348
460	338
461	347
462	333
463	334
464	329
465	269
466	325
467	289
468	297
469	324
470	270
471	295
472	287
473	308
474	291
475	296
476	284
477	258
478	276
479	269
480	293
481	275
482	302
483	260
484	295
485	288
486	299
487	312
488	281
489	297
490	288
491	255
492	279
493	289
494	277
495	281
496	307
497	257
498	271
499	293
500	281
501	268
502	262
503	253
504	260
505	268
506	282
507	279
508	272
509	259
510	278
511	254
512	254
513	250
514	314
515	274
516	260
517	276
518	245
519	250
520	232
521	267
522	232
523	267
524	242
525	263
526	284
527	264
528	251
529	264
530	266
531	268
532	260
533	238
534	234
535	244
536	213
537	237
538	219
539	274
540	257
541	233
542	229
543	265
544	213
545	227
546	229
547	265
548	224
549	231
550	229
551	251
552	232
553	248
554	234
555	268
556	253
557	237
558	236
559	231
560	253
561	242
562	211
563	212
564	265
565	211
566	245
567	222
568	234
569	261
570	214
571	238
572	226
573	237
574	233
575	215
576	223
577	213
578	229
579	202
580	208
581	230
582	233
583	230
584	233
585	231
586	232
587	228
588	224
589	241
590	212
591	246
592	232
593	204
594	184
595	240
596	229
597	226
598	226
599	220
600	221
601	217
602	232
603	209
604	210
605	216
606	244
607	219
608	230
609	221
610	214
611	218
612	237
613	228
614	222
615	207
616	204
617	194
618	220
619	223
620	218
621	188
622	226
623	206
624	205
625	204
626	220
627	232
628	215
629	217
630	205
631	230
632	172
633	211
634	232
635	202
636	218
637	194
638	187
639	189
640	201
641	205
642	194
643	195
644	215
645	197
646	197
647	179
648	210
649	216
650	205
651	201
652	185
653	178
654	183
655	193
656	201
657	204
658	182
659	174
660	198
661	178
662	166
663	190
664	180
665	188
666	180
667	200
668	177
669	197
670	169
671	184
672	164
673	162
674	168
675	170
676	158
677	149
678	181
679	179
680	146
681	160
682	179
683	161
684	138
685	172
686	154
687	177
688	170
689	151
690	164
691	134
692	145
693	126
694	130
695	146
696	122
697	151
698	141
699	122
700	116
701	141
702	135
703	114
704	102
705	140
706	121
707	107
708	120
709	128
710	146
711	99
712	105
713	125
714	120
715	114
716	105
717	132
718	126
719	157
720	152
721	145
722	153
723	168
724	155
725	163
726	195
727	213
728	216
729	198
730	235
731	244
732	259
733	273
734	285
735	301
736	339
737	328
738	373
739	370
740	425
741	462
742	450
743	478
744	507
745	519
746	598
747	586
748	613
749	627
750	656
751	668
752	685
753	700
754	771
755	809
756	821
757	845
758	844
759	804
760	894
761	856
762	854
763	891
764	941
765	964
766	933
767	949
768	937
769	932
770	921
771	939
772	881
773	885
774	943
775	844
776	858
777	944
778	904
779	780
780	796
781	783
782	751
783	730
784	698
785	678
786	621
787	665
788	594
789	562
790	552
791	507
792	543
793	494
794	474
795	420
796	373
797	362
798	334
799	312
800	322
801	307
802	267
803	243
804	249
805	214
806	191
807	175
808	167
809	170
810	142
811	135
812	129
813	91
814	102
815	100
816	81
817	70
818	62
819	68
820	62
821	45
822	41
823	30
824	40
825	36
826	30
827	26
828	25
829	18
830	15
831	22
832	16
833	15
834	18
835	8
836	5
837	9
838	8
839	8
840	11
841	5
842	2
843	11
844	5
845	6
846	5
847	4
848	4
849	6
850	3
851	3
852	4
853	3
854	1
855	3
856	5
857	2
858	2
859	2
860	2
861	1
862	1
863	3
864	1
865	1
866	2
867	1
868	5
869	3
870	3
871	5
872	4
873	2
874	6
875	3
876	2
877	4
878	2
879	1
880	2
881	3
882	0
883	2
884	3
885	4
886	2
887	6
888	5
889	0
890	1
891	2
892	2
893	1
894	1
895	5
896	1
897	2
898	3
899	3
900	3
901	6
902	3
903	7
904	2
905	2
906	6
907	2
908	1
909	4
910	6
911	0
912	4
913	2
914	0
915	1
916	7
917	2
918	1
919	1
920	1
921	0
922	2
923	1
924	1
925	2
926	2
927	1
928	0
929	2
930	3
931	0
932	0
933	5
934	1
935	3
936	2
937	3
938	1
939	1
940	1
941	2
942	2
943	3
944	1
945	2
946	2
947	3
948	3
949	0
950	4
951	1
952	3
953	3
954	2
955	1
956	1
957	1
958	3
959	1
960	2
961	2
962	3
963	0
964	2
965	2
966	2
967	1
968	0
969	0
970	0
971	5
972	2
973	2
974	4
975	1
976	1
977	3
978	1
979	2
980	0
981	1
982	4
983	2
984	1
985	1
986	2
987	2
988	1
989	2
990	2
991	2
992	0
993	0
994	1
995	1
996	3
997	2
998	2
999	2
1000	2
1001	0
1002	3
1003	0
1004	2
1005	2
1006	3
1007	3
1008	0
1009	0
1010	0
1011	0
1012	0
1013	0
1014	0
1015	0
1016	0
1017	0
1018	0
1019	0
1020	0
1021	0
1022	0
1023	0
