0	0
1	0
2	0
3	0
4	0
5	0
6	0
7	0
8	0
9	0
10	0
11	0
12	0
13	0
14	9
15	841
16	811
17	689
18	571
19	488
20	427
21	456
22	385
23	364
24	332
25	326
26	320
27	332
28	326
29	323
30	329
31	369
32	359
33	357
34	324
35	339
36	343
37	324
38	326
39	328
40	357
41	347
42	305
43	366
44	302
45	270
46	301
47	292
48	302
49	314
50	307
51	322
52	287
53	315
54	329
55	358
56	338
57	340
58	306
59	324
60	341
61	385
62	363
63	364
64	340
65	322
66	360
67	354
68	361
69	368
70	317
71	324
72	364
73	353
74	322
75	320
76	321
77	369
78	355
79	349
80	321
81	343
82	326
83	353
84	326
85	327
86	331
87	315
88	330
89	347
90	338
91	320
92	348
93	333
94	308
95	316
96	313
97	361
98	275
99	316
100	340
101	357
102	318
103	306
104	316
105	328
106	300
107	312
108	268
109	287
110	308
111	265
112	245
113	232
114	299
115	256
116	253
117	224
118	242
119	215
120	218
121	202
122	220
123	242
124	257
125	246
126	246
127	249
128	270
129	296
130	302
131	324
132	331
133	351
134	408
135	434
136	479
137	533
138	626
139	717
140	745
141	921
142	1059
143	1205
144	1469
145	1753
146	2044
147	2412
148	2683
149	3183
150	3569
151	4004
152	4466
153	4903
154	5293
155	5737
156	6170
157	6404
158	6603
159	6801
160	6837
161	7103
162	6973
163	6805
164	6640
165	6302
166	5942
167	5716
168	5204
169	4751
170	4410
171	3832
172	3473
173	3144
174	2637
175	2347
176	1922
177	1657
178	1425
179	1227
180	969
181	847
182	665
183	560
184	526
185	408
186	375
187	322
188	293
189	264
190	250
191	213
192	219
193	184
194	201
195	198
196	183
197	193
198	186
199	223
200	204
201	201
202	188
203	206
204	195
205	193
206	215
207	180
208	176
209	238
210	203
211	211
212	211
213	210
214	220
215	208
216	215
217	203
218	204
219	217
220	210
221	231
222	219
223	216
224	222
225	219
226	210
227	240
228	224
229	211
230	206
231	208
232	200
233	229
234	214
235	195
236	203
237	191
238	181
239	199
240	206
241	209
242	156
243	201
244	208
245	194
246	187
247	197
248	194
249	187
250	185
251	168
252	192
253	170
254	185
255	176
256	135
257	197
258	196
259	155
260	182
261	158
262	166
263	171
264	152
265	151
266	159
267	154
268	152
269	167
270	165
271	151
272	152
273	161
274	139
275	173
276	151
277	148
278	159
279	156
280	142
281	156
282	134
283	126
284	146
285	157
286	154
287	151
288	131
289	134
290	180
291	135
292	134
293	146
294	146
295	145
296	147
297	133
298	136
299	139
300	126
301	147
302	146
303	132
304	135
305	127
306	138
307	150
308	132
309	115
310	126
311	125
312	131
313	139
314	147
315	125
316	138
317	145
318	138
319	125
320	135
321	113
322	119
323	136
324	118
325	135
326	118
327	132
328	130
329	122
330	104
331	125
332	114
333	125
334	109
335	116
336	110
337	113
338	103
339	123
340	126
341	92
342	97
343	109
344	108
345	111
346	112
347	114
348	106
349	107
350	114
351	136
352	123
353	123
354	117
355	110
356	121
357	137
358	130
359	138
360	142
361	143
362	163
363	169
364	216
365	208
366	193
367	230
368	223
369	238
370	269
371	308
372	311
373	326
374	385
375	346
376	408
377	422
378	432
379	438
380	478
381	526
382	586
383	530
384	540
385	613
386	590
387	618
388	614
389	658
390	693
391	609
392	689
393	700
394	678
395	598
396	675
397	656
398	627
399	624
400	582
401	606
402	583
403	548
404	549
405	521
406	502
407	478
408	452
409	431
410	413
411	445
412	346
413	330
414	338
415	330
416	317
417	303
418	266
419	271
420	237
421	250
422	239
423	195
424	197
425	185
426	185
427	183
428	162
429	189
430	137
431	147
432	158
433	163
434	165
435	146
436	149
437	132
438	137
439	136
440	130
441	135
442	111
443	115
444	150
445	142
446	124
447	135
448	143
449	143
450	133
451	119
452	109
453	127
454	134
455	135
456	110
457	134
458	139
459	141
460	131
461	122
462	105
463	123
464	109
465	116
466	124
467	117
468	134
469	120
470	121
471	137
472	118
473	105
474	111
475	110
476	107
477	116
478	91
479	133
480	103
481	121
482	108
483	91
484	118
485	109
486	115
487	95
488	83
489	88
490	99
491	81
492	93
493	89
494	89
495	110
496	73
497	102
498	95
499	105
500	111
501	94
502	97
503	110
504	108
505	119
506	119
507	129
508	168
509	143
510	162
511	176
512	184
513	194
514	200
515	234
516	244
517	273
518	279
519	331
520	337
521	355
522	365
523	373
524	428
525	456
526	490
527	491
528	502
529	494
530	562
531	594
532	646
533	678
534	683
535	700
536	737
537	759
538	738
539	732
540	817
541	809
542	815
543	808
544	877
545	924
546	820
547	885
548	830
549	811
550	803
551	813
552	833
553	768
554	791
555	763
556	771
557	645
558	678
559	621
560	622
561	628
562	513
563	530
564	479
565	489
566	423
567	411
568	395
569	373
570	308
571	324
572	311
573	287
574	227
575	228
576	203
577	167
578	177
579	148
580	119
581	124
582	114
583	92
584	96
585	88
586	80
587	66
588	54
589	49
590	41
591	42
592	48
593	30
594	43
595	32
596	23
597	29
598	25
599	22
600	26
601	26
602	17
603	20
604	19
605	12
606	11
607	12
608	16
609	15
610	13
611	15
612	7
613	18
614	12
615	13
616	11
617	12
618	11
619	7
620	16
621	14
622	13
623	9
624	9
625	6
626	8
627	11
628	9
629	9
630	5
631	8
632	7
633	4
634	2
635	8
636	12
637	8
638	2
639	9
640	11
641	4
642	7
643	12
644	7
645	6
646	5
647	7
648	4
649	8
650	9
651	3
652	7
653	3
654	4
655	5
656	2
657	5
658	5
659	3
660	2
661	3
662	3
663	2
664	2
665	2
666	1
667	1
668	5
669	1
670	2
671	2
672	3
673	4
674	3
675	2
676	1
677	1
678	2
679	5
680	4
681	1
682	2
683	2
684	2
685	0
686	0
687	1
688	2
689	2
690	2
691	1
692	1
693	1
694	0
695	2
696	0
697	2
698	1
699	0
700	0
701	1
702	1
703	1
704	4
705	0
706	2
707	0
708	0
709	0
710	0
711	1
712	1
713	0
714	1
715	0
716	3
717	1
718	0
719	1
720	1
721	0
722	0
723	0
724	0
725	1
726	1
727	1
728	0
729	0
730	0
731	2
732	0
733	0
734	1
735	0
736	1
737	0
738	1
739	0
740	0
741	2
742	0
743	0
744	0
745	0
746	0
747	0
748	0
749	0
750	0
751	0
752	0
753	1
754	0
755	0
756	0
757	0
758	0
759	0
760	0
761	0
762	0
763	0
764	1
765	1
766	0
767	0
768	0
769	0
770	1
771	0
772	0
773	0
774	0
775	0
776	2
777	0
778	0
779	1
780	0
781	1
782	0
783	0
784	0
785	0
786	0
787	0
788	0
789	0
790	0
791	0
792	1
793	1
794	0
795	0
796	0
797	0
798	1
799	0
800	0
801	0
802	0
803	1
804	0
805	0
806	0
807	0
808	0
809	0
810	1
811	0
812	0
813	0
814	0
815	1
816	0
817	0
818	0
819	1
820	1
821	0
822	0
823	0
824	0
825	0
826	0
827	1
828	0
829	0
830	0
831	0
832	1
833	1
834	0
835	0
836	2
837	0
838	0
839	0
840	0
841	2
842	0
843	0
844	0
845	0
846	0
847	0
848	0
849	0
850	0
851	1
852	0
853	0
854	1
855	1
856	1
857	0
858	0
859	0
860	0
861	0
862	0
863	0
864	0
865	0
866	0
867	0
868	0
869	0
870	0
871	1
872	0
873	1
874	0
875	0
876	0
877	0
878	0
879	0
880	0
881	0
882	0
883	0
884	0
885	0
886	0
887	0
888	0
889	0
890	0
891	0
892	0
893	0
894	0
895	0
896	0
897	0
898	0
899	0
900	0
901	0
902	2
903	0
904	0
905	0
906	1
907	0
908	0
909	0
910	0
911	0
912	0
913	0
914	0
915	0
916	0
917	0
918	0
919	0
920	0
921	0
922	0
923	1
924	1
925	0
926	0
927	0
928	1
929	0
930	0
931	0
932	0
933	0
934	0
935	0
936	0
937	0
938	0
939	0
940	0
941	1
942	0
943	0
944	0
945	0
946	0
947	0
948	0
949	1
950	0
951	1
952	0
953	0
954	0
955	0
956	0
957	0
958	0
959	0
960	0
961	0
962	0
963	0
964	0
965	0
966	0
967	0
968	0
969	0
970	0
971	1
972	0
973	0
974	0
975	0
976	0
977	0
978	0
979	0
980	0
981	2
982	0
983	0
984	0
985	0
986	0
987	0
988	0
989	0
990	0
991	0
992	0
993	0
994	0
995	0
996	0
997	0
998	0
999	0
1000	0
1001	1
1002	0
1003	0
1004	1
1005	0
1006	0
1007	0
1008	0
1009	0
1010	0
1011	0
1012	0
1013	0
1014	0
1015	0
1016	0
1017	0
1018	0
1019	0
1020	0
1021	0
1022	0
1023	0
