0	0
1	0
2	0
3	0
4	0
5	0
6	0
7	0
8	0
9	0
10	0
11	0
12	0
13	0
14	18
15	819
16	804
17	728
18	547
19	433
20	389
21	404
22	343
23	340
24	369
25	366
26	335
27	317
28	343
29	316
30	326
31	365
32	334
33	327
34	338
35	397
36	335
37	318
38	313
39	364
40	321
41	293
42	330
43	272
44	336
45	293
46	297
47	311
48	336
49	334
50	334
51	303
52	306
53	337
54	340
55	331
56	347
57	392
58	337
59	374
60	327
61	353
62	356
63	334
64	363
65	357
66	352
67	374
68	361
69	374
70	352
71	375
72	357
73	375
74	341
75	352
76	335
77	364
78	300
79	325
80	333
81	328
82	373
83	312
84	340
85	312
86	284
87	365
88	379
89	359
90	328
91	333
92	337
93	341
94	346
95	311
96	329
97	330
98	369
99	343
100	322
101	287
102	335
103	342
104	309
105	310
106	341
107	284
108	310
109	259
110	263
111	326
112	269
113	280
114	240
115	218
116	232
117	224
118	241
119	222
120	217
121	200
122	229
123	230
124	230
125	231
126	224
127	252
128	276
129	309
130	312
131	320
132	336
133	382
134	420
135	432
136	519
137	524
138	649
139	714
140	822
141	963
142	1109
143	1269
144	1429
145	1700
146	2011
147	2378
148	2729
149	3147
150	3630
151	3993
152	4486
153	4983
154	5408
155	5833
156	6114
157	6527
158	6820
159	6952
160	7161
161	7067
162	7044
163	6872
164	6533
165	6424
166	5986
167	5768
168	5178
169	4802
170	4231
171	3957
172	3536
173	3100
174	2718
175	2234
176	1997
177	1703
178	1436
179	1253
180	968
181	879
182	682
183	586
184	538
185	400
186	417
187	309
188	305
189	254
190	249
191	242
192	213
193	225
194	196
195	192
196	165
197	164
198	216
199	217
200	220
201	177
202	200
203	198
204	189
205	206
206	195
207	180
208	196
209	213
210	208
211	233
212	217
213	219
214	213
215	209
216	213
217	217
218	246
219	207
220	228
221	244
222	229
223	212
224	202
225	216
226	206
227	208
228	217
229	196
230	237
231	217
232	234
233	203
234	184
235	209
236	217
237	222
238	207
239	197
240	199
241	215
242	210
243	181
244	215
245	195
246	187
247	177
248	188
249	210
250	176
251	192
252	170
253	184
254	165
255	182
256	190
257	181
258	174
259	175
260	188
261	178
262	187
263	159
264	179
265	182
266	181
267	198
268	184
269	138
270	171
271	153
272	161
273	139
274	160
275	174
276	152
277	157
278	143
279	163
280	152
281	186
282	171
283	149
284	162
285	132
286	144
287	153
288	150
289	143
290	155
291	142
292	153
293	143
294	143
295	107
296	137
297	139
298	121
299	145
300	162
301	135
302	143
303	155
304	142
305	137
306	132
307	128
308	142
309	157
310	132
311	131
312	153
313	136
314	136
315	139
316	113
317	164
318	113
319	126
320	140
321	140
322	125
323	116
324	131
325	141
326	113
327	126
328	110
329	124
330	142
331	144
332	134
333	106
334	121
335	135
336	120
337	105
338	121
339	105
340	106
341	103
342	125
343	118
344	116
345	109
346	118
347	120
348	136
349	112
350	119
351	117
352	131
353	111
354	118
355	109
356	138
357	134
358	130
359	152
360	164
361	172
362	153
363	166
364	166
365	188
366	181
367	222
368	245
369	257
370	284
371	305
372	303
373	324
374	356
375	384
376	400
377	438
378	442
379	488
380	491
381	538
382	571
383	582
384	565
385	599
386	636
387	647
388	679
389	609
390	707
391	710
392	656
393	681
394	640
395	662
396	610
397	654
398	653
399	666
400	636
401	600
402	596
403	543
404	569
405	505
406	471
407	461
408	445
409	405
410	404
411	382
412	379
413	376
414	332
415	324
416	293
417	288
418	274
419	243
420	241
421	237
422	227
423	216
424	183
425	219
426	198
427	196
428	141
429	172
430	171
431	183
432	161
433	147
434	156
435	150
436	142
437	142
438	148
439	150
440	153
441	131
442	152
443	143
444	145
445	131
446	120
447	125
448	129
449	119
450	128
451	151
452	146
453	134
454	124
455	145
456	164
457	144
458	149
459	113
460	117
461	138
462	145
463	135
464	136
465	120
466	137
467	121
468	143
469	124
470	101
471	117
472	130
473	104
474	111
475	121
476	95
477	114
478	121
479	106
480	111
481	110
482	105
483	113
484	105
485	88
486	91
487	83
488	103
489	98
490	98
491	111
492	99
493	88
494	91
495	86
496	107
497	79
498	92
499	91
500	89
501	112
502	101
503	123
504	104
505	104
506	114
507	138
508	119
509	146
510	151
511	164
512	178
513	183
514	187
515	214
516	234
517	270
518	284
519	306
520	337
521	370
522	381
523	433
524	382
525	440
526	491
527	489
528	523
529	554
530	585
531	636
532	611
533	683
534	723
535	691
536	712
537	726
538	766
539	808
540	819
541	801
542	836
543	827
544	870
545	892
546	875
547	899
548	841
549	840
550	843
551	833
552	847
553	782
554	747
555	735
556	744
557	749
558	668
559	696
560	663
561	590
562	580
563	517
564	502
565	477
566	444
567	439
568	402
569	384
570	337
571	357
572	312
573	297
574	250
575	246
576	230
577	181
578	164
579	159
580	130
581	136
582	121
583	120
584	115
585	103
586	83
587	76
588	56
589	53
590	54
591	48
592	47
593	35
594	33
595	29
596	32
597	22
598	17
599	28
600	17
601	21
602	16
603	20
604	18
605	12
606	14
607	11
608	14
609	13
610	10
611	11
612	17
613	13
614	9
615	7
616	7
617	12
618	11
619	14
620	14
621	9
622	7
623	15
624	5
625	11
626	9
627	5
628	11
629	11
630	16
631	11
632	5
633	4
634	9
635	8
636	9
637	9
638	4
639	10
640	4
641	6
642	4
643	4
644	4
645	8
646	9
647	3
648	7
649	7
650	10
651	2
652	1
653	4
654	8
655	4
656	3
657	0
658	5
659	2
660	4
661	0
662	3
663	1
664	4
665	2
666	2
667	1
668	2
669	3
670	4
671	2
672	1
673	4
674	4
675	2
676	2
677	1
678	5
679	2
680	0
681	1
682	2
683	1
684	3
685	2
686	1
687	2
688	1
689	2
690	3
691	1
692	1
693	2
694	2
695	1
696	1
697	0
698	0
699	1
700	2
701	0
702	0
703	1
704	0
705	1
706	0
707	0
708	0
709	0
710	0
711	1
712	1
713	2
714	0
715	0
716	2
717	0
718	0
719	0
720	1
721	2
722	0
723	1
724	0
725	1
726	0
727	1
728	1
729	0
730	3
731	0
732	1
733	0
734	1
735	1
736	0
737	0
738	2
739	1
740	0
741	0
742	0
743	0
744	0
745	1
746	0
747	0
748	1
749	0
750	1
751	1
752	1
753	1
754	2
755	0
756	0
757	1
758	0
759	0
760	0
761	1
762	1
763	0
764	0
765	0
766	0
767	1
768	0
769	2
770	0
771	3
772	0
773	0
774	1
775	0
776	1
777	2
778	0
779	0
780	1
781	0
782	1
783	0
784	0
785	0
786	2
787	0
788	0
789	0
790	0
791	1
792	0
793	1
794	0
795	0
796	0
797	0
798	0
799	0
800	0
801	0
802	1
803	1
804	0
805	0
806	1
807	0
808	0
809	0
810	0
811	0
812	0
813	0
814	0
815	0
816	0
817	0
818	0
819	0
820	1
821	0
822	0
823	1
824	0
825	0
826	0
827	0
828	0
829	0
830	0
831	0
832	0
833	0
834	1
835	0
836	0
837	0
838	0
839	0
840	0
841	0
842	0
843	0
844	0
845	0
846	0
847	1
848	0
849	0
850	0
851	0
852	0
853	1
854	0
855	0
856	1
857	0
858	0
859	0
860	0
861	0
862	0
863	0
864	0
865	1
866	0
867	0
868	0
869	0
870	0
871	0
872	1
873	0
874	0
875	0
876	0
877	0
878	0
879	0
880	0
881	0
882	0
883	1
884	0
885	0
886	0
887	1
888	0
889	0
890	0
891	1
892	0
893	0
894	0
895	0
896	0
897	0
898	0
899	1
900	0
901	0
902	0
903	0
904	0
905	0
906	0
907	1
908	0
909	0
910	0
911	0
912	0
913	0
914	0
915	1
916	0
917	0
918	0
919	0
920	0
921	0
922	1
923	0
924	0
925	0
926	0
927	0
928	0
929	0
930	0
931	0
932	0
933	0
934	0
935	0
936	0
937	0
938	0
939	0
940	0
941	0
942	0
943	0
944	0
945	0
946	0
947	0
948	0
949	0
950	0
951	0
952	0
953	0
954	0
955	0
956	0
957	0
958	0
959	0
960	1
961	0
962	0
963	0
964	0
965	0
966	0
967	0
968	0
969	0
970	0
971	0
972	0
973	0
974	0
975	0
976	0
977	0
978	0
979	2
980	1
981	0
982	0
983	0
984	1
985	0
986	0
987	0
988	0
989	0
990	0
991	0
992	0
993	0
994	0
995	0
996	0
997	0
998	0
999	0
1000	0
1001	0
1002	0
1003	0
1004	0
1005	1
1006	0
1007	0
1008	0
1009	0
1010	0
1011	0
1012	0
1013	0
1014	0
1015	0
1016	0
1017	0
1018	0
1019	0
1020	0
1021	0
1022	0
1023	0
