0	0
1	0
2	0
3	0
4	0
5	0
6	0
7	0
8	0
9	0
10	0
11	0
12	0
13	0
14	30
15	1717
16	1778
17	1502
18	1401
19	1239
20	1130
21	1033
22	1080
23	1010
24	1018
25	1045
26	1019
27	1054
28	1021
29	973
30	972
31	992
32	981
33	968
34	997
35	931
36	1006
37	1004
38	973
39	987
40	999
41	978
42	960
43	965
44	1015
45	954
46	953
47	960
48	992
49	938
50	963
51	931
52	1003
53	939
54	998
55	1012
56	1014
57	996
58	1016
59	988
60	992
61	989
62	1050
63	986
64	1087
65	1065
66	1073
67	1185
68	1123
69	1068
70	1103
71	1195
72	1164
73	1194
74	1176
75	1184
76	1235
77	1195
78	1232
79	1197
80	1212
81	1228
82	1196
83	1169
84	1144
85	1199
86	1151
87	1191
88	1190
89	1181
90	1213
91	1196
92	1145
93	1153
94	1119
95	1098
96	1125
97	1081
98	1086
99	1119
100	1077
101	1143
102	1074
103	1098
104	1067
105	1023
106	1049
107	1071
108	1016
109	999
110	1038
111	1107
112	1039
113	1037
114	1070
115	1049
116	1085
117	1023
118	1055
119	1065
120	979
121	1020
122	1061
123	1017
124	992
125	1005
126	1033
127	945
128	1050
129	1005
130	954
131	1003
132	979
133	980
134	987
135	982
136	952
137	1013
138	959
139	977
140	953
141	944
142	960
143	960
144	987
145	939
146	921
147	936
148	977
149	914
150	981
151	954
152	929
153	971
154	935
155	924
156	894
157	926
158	931
159	891
160	958
161	915
162	960
163	976
164	974
165	951
166	889
167	919
168	920
169	857
170	924
171	917
172	936
173	916
174	895
175	931
176	896
177	918
178	951
179	915
180	887
181	932
182	899
183	903
184	909
185	946
186	939
187	919
188	933
189	978
190	893
191	888
192	873
193	880
194	909
195	972
196	940
197	936
198	887
199	917
200	931
201	903
202	893
203	928
204	845
205	853
206	926
207	834
208	947
209	885
210	861
211	860
212	896
213	876
214	935
215	871
216	878
217	872
218	947
219	931
220	920
221	907
222	885
223	899
224	903
225	896
226	857
227	876
228	868
229	842
230	855
231	854
232	914
233	865
234	830
235	874
236	868
237	861
238	851
239	876
240	890
241	912
242	890
243	838
244	876
245	843
246	919
247	913
248	879
249	946
250	913
251	906
252	882
253	896
254	825
255	865
256	883
257	924
258	836
259	881
260	889
261	861
262	853
263	862
264	854
265	909
266	835
267	878
268	866
269	860
270	804
271	766
272	827
273	817
274	771
275	747
276	802
277	830
278	802
279	811
280	806
281	807
282	881
283	793
284	795
285	765
286	764
287	788
288	744
289	748
290	771
291	806
292	765
293	755
294	779
295	728
296	714
297	710
298	680
299	729
300	713
301	712
302	675
303	621
304	656
305	648
306	630
307	624
308	599
309	611
310	549
311	613
312	574
313	578
314	609
315	549
316	580
317	636
318	580
319	625
320	633
321	567
322	631
323	653
324	662
325	690
326	747
327	739
328	873
329	896
330	983
331	1062
332	1138
333	1193
334	1337
335	1469
336	1614
337	1687
338	1933
339	2107
340	2242
341	2386
342	2626
343	2838
344	3098
345	3289
346	3559
347	3863
348	3971
349	4408
350	4483
351	4873
352	5048
353	5225
354	5411
355	5625
356	5800
357	6111
358	6099
359	6208
360	6415
361	6369
362	6381
363	6248
364	6287
365	6144
366	6095
367	5902
368	5940
369	5793
370	5505
371	5191
372	5087
373	5059
374	4831
375	4460
376	4560
377	4147
378	3902
379	3840
380	3637
381	3688
382	3388
383	3342
384	3286
385	3191
386	3110
387	3049
388	3158
389	3167
390	3253
391	3344
392	3319
393	3476
394	3698
395	3852
396	3830
397	3807
398	4132
399	4234
400	4478
401	4551
402	4648
403	4802
404	5005
405	5053
406	5063
407	5242
408	5273
409	5172
410	5253
411	5279
412	5157
413	5158
414	5116
415	5084
416	4920
417	5006
418	4686
419	4471
420	4276
421	4234
422	3938
423	3965
424	3702
425	3565
426	3238
427	2988
428	2853
429	2692
430	2452
431	2420
432	2163
433	2038
434	1780
435	1639
436	1542
437	1431
438	1342
439	1174
440	1090
441	971
442	901
443	847
444	759
445	700
446	677
447	606
448	593
449	522
450	491
451	438
452	452
453	423
454	392
455	379
456	378
457	394
458	342
459	345
460	307
461	320
462	340
463	280
464	362
465	294
466	316
467	319
468	305
469	303
470	290
471	287
472	288
473	263
474	294
475	271
476	293
477	275
478	272
479	294
480	302
481	255
482	292
483	279
484	291
485	258
486	310
487	304
488	277
489	290
490	301
491	297
492	275
493	281
494	303
495	271
496	240
497	303
498	258
499	296
500	262
501	258
502	290
503	267
504	277
505	275
506	238
507	263
508	254
509	260
510	255
511	280
512	250
513	279
514	283
515	285
516	258
517	248
518	261
519	260
520	284
521	233
522	236
523	255
524	237
525	264
526	251
527	242
528	237
529	251
530	277
531	238
532	229
533	253
534	216
535	243
536	250
537	247
538	239
539	293
540	247
541	240
542	216
543	256
544	248
545	241
546	236
547	213
548	240
549	225
550	247
551	240
552	215
553	240
554	238
555	211
556	248
557	262
558	221
559	218
560	234
561	210
562	282
563	209
564	235
565	232
566	214
567	220
568	196
569	209
570	226
571	225
572	262
573	224
574	238
575	241
576	251
577	254
578	223
579	225
580	222
581	252
582	238
583	225
584	207
585	236
586	250
587	255
588	231
589	226
590	233
591	239
592	196
593	203
594	241
595	213
596	232
597	243
598	218
599	249
600	203
601	218
602	210
603	233
604	213
605	202
606	227
607	214
608	183
609	246
610	224
611	226
612	206
613	217
614	230
615	214
616	220
617	214
618	219
619	223
620	215
621	203
622	196
623	189
624	214
625	223
626	226
627	196
628	225
629	207
630	182
631	191
632	204
633	193
634	219
635	209
636	220
637	187
638	200
639	196
640	169
641	193
642	199
643	193
644	213
645	197
646	208
647	181
648	191
649	183
650	175
651	203
652	193
653	198
654	166
655	192
656	201
657	188
658	166
659	195
660	202
661	164
662	184
663	181
664	141
665	172
666	155
667	185
668	198
669	179
670	168
671	188
672	170
673	176
674	179
675	167
676	154
677	164
678	163
679	184
680	171
681	158
682	153
683	165
684	153
685	172
686	153
687	152
688	138
689	150
690	123
691	157
692	137
693	140
694	154
695	143
696	149
697	146
698	139
699	148
700	118
701	132
702	123
703	135
704	124
705	150
706	114
707	123
708	126
709	116
710	129
711	118
712	112
713	133
714	121
715	119
716	152
717	163
718	144
719	160
720	136
721	158
722	167
723	169
724	167
725	186
726	197
727	228
728	249
729	260
730	283
731	248
732	291
733	306
734	371
735	364
736	338
737	385
738	424
739	400
740	435
741	496
742	531
743	513
744	587
745	599
746	603
747	642
748	642
749	707
750	731
751	712
752	780
753	774
754	776
755	814
756	831
757	838
758	868
759	865
760	934
761	955
762	871
763	869
764	975
765	878
766	998
767	957
768	905
769	886
770	915
771	878
772	848
773	893
774	830
775	893
776	863
777	815
778	843
779	806
780	742
781	722
782	717
783	690
784	668
785	678
786	628
787	577
788	576
789	511
790	513
791	493
792	451
793	448
794	404
795	387
796	344
797	344
798	316
799	295
800	245
801	247
802	226
803	200
804	187
805	181
806	166
807	161
808	166
809	125
810	99
811	113
812	95
813	88
814	85
815	67
816	53
817	64
818	55
819	48
820	39
821	37
822	37
823	23
824	34
825	18
826	25
827	19
828	16
829	22
830	8
831	7
832	5
833	12
834	10
835	5
836	8
837	11
838	4
839	4
840	7
841	8
842	3
843	1
844	10
845	7
846	5
847	6
848	7
849	2
850	4
851	5
852	7
853	1
854	4
855	2
856	1
857	1
858	6
859	1
860	3
861	4
862	6
863	0
864	2
865	6
866	1
867	5
868	0
869	3
870	6
871	1
872	3
873	1
874	2
875	1
876	4
877	2
878	3
879	1
880	4
881	2
882	1
883	0
884	4
885	1
886	2
887	1
888	2
889	1
890	4
891	5
892	2
893	2
894	2
895	4
896	5
897	1
898	3
899	0
900	3
901	1
902	1
903	1
904	3
905	2
906	4
907	2
908	1
909	1
910	0
911	4
912	0
913	3
914	3
915	0
916	3
917	1
918	2
919	4
920	2
921	4
922	1
923	2
924	0
925	2
926	2
927	2
928	2
929	0
930	5
931	2
932	3
933	0
934	2
935	3
936	3
937	3
938	4
939	0
940	1
941	4
942	2
943	2
944	2
945	1
946	2
947	2
948	8
949	1
950	2
951	2
952	2
953	3
954	1
955	1
956	4
957	3
958	2
959	1
960	1
961	4
962	0
963	1
964	1
965	1
966	4
967	5
968	3
969	4
970	1
971	0
972	2
973	3
974	0
975	2
976	3
977	2
978	1
979	1
980	3
981	3
982	0
983	0
984	3
985	2
986	1
987	1
988	3
989	0
990	3
991	2
992	3
993	0
994	3
995	4
996	1
997	1
998	1
999	2
1000	1
1001	1
1002	1
1003	2
1004	1
1005	3
1006	1
1007	3
1008	0
1009	0
1010	0
1011	0
1012	0
1013	0
1014	0
1015	0
1016	0
1017	0
1018	0
1019	0
1020	0
1021	0
1022	0
1023	0
