0	0
1	0
2	0
3	0
4	0
5	0
6	0
7	0
8	0
9	0
10	0
11	0
12	0
13	0
14	46
15	1652
16	1808
17	1606
18	1350
19	1205
20	1160
21	1108
22	998
23	1049
24	1045
25	995
26	918
27	1055
28	1023
29	999
30	985
31	982
32	966
33	963
34	968
35	984
36	951
37	989
38	1019
39	967
40	1004
41	1001
42	950
43	982
44	961
45	988
46	952
47	901
48	978
49	936
50	988
51	964
52	1006
53	1027
54	953
55	1000
56	1020
57	943
58	983
59	964
60	996
61	1067
62	1061
63	1064
64	1026
65	975
66	1056
67	1167
68	1115
69	1182
70	1181
71	1133
72	1224
73	1192
74	1201
75	1202
76	1198
77	1180
78	1242
79	1152
80	1225
81	1208
82	1205
83	1163
84	1171
85	1181
86	1199
87	1123
88	1138
89	1131
90	1125
91	1091
92	1086
93	1048
94	1082
95	1143
96	1053
97	1063
98	1118
99	1109
100	1121
101	1068
102	1123
103	1083
104	1078
105	991
106	1109
107	1048
108	1042
109	1046
110	1034
111	1041
112	1096
113	1101
114	981
115	936
116	1044
117	1015
118	1028
119	1015
120	985
121	994
122	1000
123	1032
124	1001
125	991
126	980
127	983
128	941
129	993
130	961
131	964
132	952
133	1023
134	923
135	954
136	976
137	993
138	946
139	968
140	924
141	1010
142	959
143	911
144	965
145	966
146	990
147	896
148	962
149	979
150	984
151	951
152	946
153	975
154	967
155	907
156	990
157	936
158	886
159	890
160	983
161	918
162	927
163	952
164	966
165	933
166	959
167	964
168	975
169	909
170	952
171	891
172	932
173	900
174	953
175	877
176	876
177	928
178	926
179	996
180	914
181	888
182	907
183	870
184	950
185	929
186	938
187	922
188	904
189	952
190	915
191	953
192	923
193	954
194	888
195	884
196	892
197	930
198	902
199	987
200	943
201	870
202	953
203	895
204	923
205	858
206	909
207	876
208	846
209	944
210	847
211	922
212	905
213	883
214	914
215	907
216	950
217	841
218	900
219	878
220	948
221	889
222	892
223	882
224	866
225	892
226	855
227	886
228	846
229	921
230	886
231	885
232	864
233	826
234	856
235	859
236	911
237	861
238	876
239	899
240	903
241	901
242	897
243	886
244	954
245	892
246	855
247	918
248	857
249	917
250	892
251	841
252	901
253	877
254	922
255	923
256	851
257	887
258	921
259	899
260	883
261	900
262	894
263	895
264	868
265	813
266	875
267	868
268	842
269	853
270	875
271	821
272	912
273	786
274	816
275	831
276	797
277	770
278	843
279	761
280	763
281	778
282	780
283	764
284	778
285	697
286	785
287	760
288	783
289	712
290	797
291	737
292	700
293	694
294	744
295	683
296	704
297	667
298	749
299	689
300	697
301	688
302	690
303	654
304	654
305	651
306	594
307	642
308	633
309	577
310	591
311	563
312	614
313	614
314	578
315	571
316	548
317	624
318	554
319	552
320	590
321	627
322	677
323	665
324	683
325	687
326	726
327	818
328	863
329	949
330	970
331	1033
332	1233
333	1267
334	1373
335	1503
336	1591
337	1790
338	1932
339	2193
340	2416
341	2604
342	2755
343	2948
344	3212
345	3425
346	3766
347	4002
348	4206
349	4453
350	4657
351	4879
352	5214
353	5278
354	5695
355	5650
356	5991
357	6144
358	6148
359	6197
360	6265
361	6256
362	6303
363	6325
364	6359
365	6215
366	6198
367	5903
368	5673
369	5637
370	5554
371	5345
372	5168
373	4897
374	4584
375	4545
376	4302
377	4130
378	3997
379	3908
380	3615
381	3633
382	3442
383	3138
384	3236
385	3129
386	3125
387	3113
388	3119
389	3209
390	3197
391	3391
392	3355
393	3547
394	3639
395	3801
396	3995
397	4094
398	4137
399	4185
400	4395
401	4600
402	4750
403	4811
404	5079
405	5020
406	5162
407	5229
408	5260
409	5341
410	5249
411	5298
412	5319
413	5242
414	5146
415	4998
416	4992
417	4695
418	4581
419	4501
420	4301
421	4241
422	3954
423	3752
424	3538
425	3434
426	3228
427	2963
428	2799
429	2530
430	2431
431	2284
432	2114
433	1910
434	1873
435	1695
436	1526
437	1339
438	1288
439	1165
440	1062
441	979
442	915
443	816
444	702
445	669
446	685
447	585
448	541
449	546
450	463
451	410
452	441
453	394
454	378
455	348
456	379
457	339
458	343
459	315
460	305
461	341
462	318
463	309
464	279
465	305
466	283
467	302
468	270
469	266
470	289
471	308
472	311
473	288
474	308
475	283
476	297
477	293
478	289
479	305
480	308
481	284
482	274
483	254
484	315
485	318
486	300
487	268
488	255
489	321
490	265
491	274
492	290
493	297
494	294
495	254
496	273
497	269
498	273
499	265
500	301
501	260
502	272
503	252
504	267
505	282
506	252
507	266
508	232
509	275
510	245
511	286
512	250
513	257
514	257
515	235
516	253
517	250
518	252
519	260
520	247
521	263
522	250
523	243
524	255
525	250
526	225
527	250
528	260
529	253
530	243
531	278
532	261
533	231
534	239
535	250
536	210
537	243
538	231
539	272
540	281
541	229
542	241
543	236
544	230
545	250
546	239
547	258
548	243
549	242
550	220
551	238
552	228
553	245
554	245
555	237
556	218
557	233
558	241
559	234
560	247
561	203
562	248
563	195
564	222
565	263
566	212
567	250
568	206
569	239
570	232
571	231
572	216
573	202
574	231
575	244
576	225
577	222
578	217
579	218
580	228
581	217
582	231
583	221
584	199
585	223
586	213
587	218
588	206
589	226
590	240
591	245
592	250
593	252
594	226
595	218
596	232
597	223
598	251
599	207
600	229
601	218
602	217
603	218
604	207
605	196
606	245
607	232
608	193
609	199
610	229
611	199
612	246
613	206
614	208
615	250
616	200
617	234
618	240
619	209
620	215
621	251
622	187
623	227
624	239
625	199
626	228
627	204
628	201
629	188
630	204
631	220
632	196
633	191
634	209
635	220
636	204
637	223
638	217
639	175
640	213
641	202
642	185
643	194
644	205
645	203
646	173
647	203
648	202
649	185
650	171
651	187
652	200
653	169
654	196
655	221
656	177
657	166
658	173
659	199
660	186
661	193
662	172
663	171
664	176
665	175
666	183
667	195
668	156
669	160
670	179
671	179
672	194
673	162
674	154
675	180
676	187
677	171
678	178
679	132
680	181
681	152
682	155
683	151
684	163
685	143
686	136
687	174
688	168
689	130
690	157
691	164
692	132
693	140
694	149
695	144
696	138
697	148
698	119
699	114
700	129
701	136
702	149
703	118
704	152
705	115
706	109
707	124
708	135
709	125
710	128
711	135
712	146
713	140
714	134
715	133
716	139
717	141
718	155
719	138
720	173
721	165
722	189
723	181
724	202
725	206
726	201
727	244
728	249
729	265
730	286
731	322
732	295
733	333
734	350
735	366
736	429
737	404
738	407
739	466
740	459
741	522
742	489
743	593
744	641
745	620
746	637
747	672
748	684
749	721
750	748
751	753
752	756
753	758
754	804
755	847
756	856
757	878
758	929
759	880
760	905
761	933
762	963
763	930
764	946
765	966
766	929
767	965
768	934
769	955
770	933
771	971
772	915
773	926
774	889
775	824
776	844
777	782
778	780
779	725
780	751
781	734
782	670
783	661
784	645
785	584
786	614
787	638
788	493
789	539
790	466
791	462
792	411
793	420
794	336
795	366
796	346
797	286
798	265
799	277
800	250
801	232
802	209
803	195
804	174
805	179
806	146
807	132
808	127
809	127
810	96
811	101
812	88
813	82
814	65
815	55
816	58
817	44
818	46
819	43
820	29
821	30
822	31
823	31
824	28
825	15
826	19
827	13
828	13
829	20
830	13
831	13
832	6
833	5
834	9
835	10
836	4
837	2
838	13
839	9
840	8
841	4
842	9
843	4
844	2
845	2
846	5
847	6
848	1
849	2
850	5
851	2
852	2
853	5
854	2
855	3
856	5
857	1
858	4
859	1
860	1
861	1
862	2
863	5
864	4
865	2
866	3
867	1
868	2
869	6
870	2
871	5
872	4
873	3
874	6
875	2
876	1
877	10
878	1
879	6
880	3
881	5
882	4
883	3
884	2
885	3
886	3
887	2
888	3
889	1
890	3
891	0
892	3
893	2
894	2
895	4
896	2
897	5
898	0
899	0
900	2
901	4
902	3
903	3
904	6
905	1
906	0
907	0
908	3
909	1
910	3
911	0
912	1
913	4
914	2
915	8
916	3
917	2
918	3
919	2
920	1
921	2
922	5
923	1
924	0
925	2
926	2
927	2
928	2
929	0
930	4
931	2
932	1
933	0
934	1
935	0
936	4
937	1
938	3
939	0
940	4
941	3
942	0
943	3
944	0
945	2
946	1
947	1
948	1
949	1
950	2
951	2
952	2
953	1
954	4
955	2
956	1
957	1
958	4
959	5
960	1
961	3
962	4
963	2
964	2
965	2
966	1
967	2
968	3
969	1
970	2
971	1
972	4
973	2
974	2
975	4
976	0
977	1
978	2
979	1
980	1
981	2
982	2
983	0
984	3
985	1
986	3
987	1
988	2
989	3
990	0
991	1
992	2
993	1
994	0
995	1
996	2
997	1
998	2
999	1
1000	2
1001	1
1002	2
1003	0
1004	1
1005	2
1006	1
1007	0
1008	0
1009	0
1010	0
1011	0
1012	0
1013	0
1014	0
1015	0
1016	0
1017	0
1018	0
1019	0
1020	0
1021	0
1022	0
1023	0
