0	0
1	0
2	0
3	0
4	0
5	0
6	0
7	0
8	0
9	0
10	0
11	0
12	0
13	0
14	14
15	1648
16	1773
17	1643
18	1413
19	1223
20	1118
21	1022
22	1056
23	973
24	1012
25	1046
26	1015
27	990
28	985
29	998
30	950
31	1003
32	1002
33	996
34	1036
35	975
36	978
37	1030
38	985
39	937
40	983
41	1000
42	973
43	987
44	978
45	924
46	987
47	972
48	921
49	936
50	937
51	954
52	941
53	986
54	911
55	973
56	975
57	979
58	900
59	968
60	988
61	1026
62	1047
63	1015
64	1071
65	1114
66	1102
67	1091
68	1083
69	1204
70	1192
71	1199
72	1205
73	1170
74	1216
75	1184
76	1237
77	1237
78	1188
79	1223
80	1184
81	1220
82	1140
83	1228
84	1173
85	1161
86	1170
87	1109
88	1154
89	1155
90	1118
91	1139
92	1096
93	1195
94	1075
95	1051
96	1076
97	1078
98	1064
99	1050
100	1159
101	1099
102	1133
103	1103
104	1157
105	1041
106	1010
107	1075
108	1067
109	1067
110	1107
111	1070
112	1080
113	943
114	994
115	1016
116	976
117	1042
118	1024
119	1027
120	986
121	1023
122	957
123	1015
124	1012
125	968
126	988
127	1031
128	981
129	1007
130	993
131	1001
132	1019
133	1014
134	983
135	931
136	922
137	1020
138	984
139	959
140	964
141	973
142	937
143	940
144	936
145	940
146	968
147	931
148	945
149	943
150	945
151	925
152	965
153	954
154	898
155	985
156	979
157	953
158	966
159	965
160	911
161	942
162	889
163	900
164	964
165	942
166	917
167	947
168	942
169	938
170	921
171	936
172	960
173	926
174	886
175	946
176	941
177	917
178	936
179	948
180	893
181	916
182	899
183	947
184	909
185	889
186	899
187	932
188	932
189	883
190	990
191	896
192	936
193	870
194	902
195	890
196	865
197	950
198	922
199	927
200	849
201	973
202	912
203	949
204	883
205	866
206	920
207	914
208	844
209	861
210	905
211	837
212	916
213	859
214	876
215	912
216	849
217	890
218	886
219	875
220	891
221	880
222	849
223	861
224	885
225	853
226	892
227	857
228	910
229	868
230	845
231	885
232	880
233	906
234	875
235	926
236	835
237	903
238	877
239	847
240	916
241	824
242	885
243	900
244	859
245	886
246	895
247	854
248	883
249	887
250	912
251	829
252	876
253	854
254	917
255	937
256	885
257	887
258	883
259	848
260	891
261	839
262	856
263	812
264	789
265	854
266	835
267	853
268	843
269	851
270	853
271	823
272	850
273	894
274	825
275	834
276	832
277	772
278	825
279	815
280	779
281	780
282	775
283	799
284	798
285	737
286	779
287	751
288	745
289	739
290	752
291	734
292	743
293	692
294	705
295	689
296	756
297	724
298	771
299	646
300	664
301	699
302	700
303	682
304	666
305	645
306	655
307	635
308	639
309	631
310	608
311	591
312	564
313	565
314	576
315	609
316	569
317	551
318	572
319	603
320	617
321	665
322	622
323	704
324	709
325	733
326	770
327	863
328	892
329	926
330	1058
331	1139
332	1276
333	1351
334	1462
335	1584
336	1760
337	1943
338	2108
339	2232
340	2492
341	2572
342	2880
343	3167
344	3342
345	3646
346	3840
347	3992
348	4353
349	4679
350	4867
351	4926
352	5183
353	5410
354	5666
355	5739
356	5888
357	6188
358	6272
359	6075
360	6281
361	6202
362	6260
363	6349
364	6086
365	6017
366	5838
367	5662
368	5737
369	5479
370	5292
371	5019
372	4797
373	4780
374	4560
375	4354
376	4171
377	3871
378	3849
379	3653
380	3553
381	3289
382	3279
383	3220
384	3234
385	3095
386	3086
387	3066
388	3155
389	3172
390	3212
391	3389
392	3428
393	3649
394	3780
395	3790
396	4074
397	3996
398	4249
399	4392
400	4585
401	4617
402	4734
403	4899
404	5043
405	5122
406	5177
407	5175
408	5244
409	5262
410	5212
411	5090
412	5178
413	5078
414	4994
415	4954
416	4855
417	4540
418	4482
419	4336
420	4188
421	3991
422	3761
423	3476
424	3385
425	3245
426	2935
427	2883
428	2701
429	2461
430	2234
431	2074
432	1992
433	1803
434	1600
435	1541
436	1378
437	1305
438	1174
439	1051
440	957
441	896
442	841
443	752
444	665
445	642
446	573
447	546
448	517
449	469
450	444
451	424
452	415
453	365
454	400
455	367
456	356
457	325
458	356
459	343
460	321
461	302
462	298
463	303
464	305
465	302
466	279
467	304
468	282
469	306
470	277
471	271
472	284
473	297
474	288
475	291
476	324
477	285
478	295
479	281
480	300
481	269
482	302
483	270
484	296
485	280
486	287
487	285
488	289
489	298
490	270
491	256
492	270
493	265
494	304
495	303
496	292
497	304
498	265
499	271
500	288
501	282
502	264
503	287
504	256
505	267
506	273
507	269
508	292
509	241
510	287
511	249
512	232
513	266
514	277
515	260
516	270
517	283
518	264
519	238
520	238
521	250
522	273
523	267
524	259
525	271
526	247
527	250
528	252
529	248
530	274
531	265
532	257
533	257
534	249
535	244
536	241
537	233
538	242
539	253
540	259
541	234
542	243
543	220
544	236
545	223
546	222
547	236
548	259
549	235
550	229
551	230
552	219
553	226
554	236
555	237
556	248
557	210
558	232
559	224
560	239
561	250
562	210
563	207
564	197
565	221
566	229
567	234
568	215
569	231
570	247
571	231
572	235
573	216
574	214
575	206
576	239
577	226
578	227
579	233
580	245
581	219
582	225
583	217
584	220
585	221
586	210
587	225
588	260
589	231
590	236
591	240
592	219
593	217
594	225
595	195
596	217
597	226
598	202
599	217
600	234
601	222
602	193
603	217
604	233
605	224
606	207
607	202
608	221
609	217
610	212
611	216
612	204
613	239
614	224
615	205
616	224
617	213
618	208
619	219
620	219
621	211
622	194
623	211
624	216
625	227
626	229
627	218
628	193
629	195
630	213
631	192
632	218
633	200
634	188
635	194
636	185
637	202
638	216
639	171
640	176
641	182
642	172
643	199
644	187
645	184
646	195
647	172
648	191
649	216
650	182
651	206
652	180
653	188
654	199
655	193
656	205
657	166
658	163
659	174
660	187
661	181
662	182
663	177
664	183
665	186
666	162
667	175
668	181
669	169
670	178
671	189
672	162
673	174
674	152
675	175
676	156
677	156
678	147
679	145
680	182
681	167
682	132
683	141
684	139
685	144
686	165
687	159
688	142
689	155
690	134
691	132
692	163
693	136
694	132
695	140
696	129
697	108
698	111
699	110
700	112
701	133
702	137
703	103
704	110
705	110
706	128
707	153
708	124
709	118
710	132
711	128
712	135
713	124
714	141
715	134
716	137
717	162
718	160
719	148
720	178
721	169
722	194
723	190
724	213
725	233
726	207
727	263
728	237
729	310
730	293
731	309
732	351
733	345
734	416
735	455
736	398
737	462
738	471
739	505
740	538
741	591
742	582
743	641
744	639
745	658
746	661
747	684
748	730
749	711
750	727
751	774
752	849
753	813
754	863
755	871
756	920
757	916
758	972
759	947
760	966
761	958
762	923
763	1011
764	914
765	880
766	933
767	936
768	901
769	897
770	885
771	866
772	815
773	861
774	855
775	804
776	766
777	711
778	704
779	727
780	665
781	695
782	622
783	590
784	559
785	599
786	569
787	515
788	442
789	438
790	420
791	397
792	397
793	389
794	324
795	334
796	320
797	274
798	253
799	239
800	212
801	194
802	190
803	182
804	145
805	131
806	142
807	112
808	118
809	95
810	80
811	72
812	74
813	68
814	59
815	56
816	43
817	37
818	44
819	33
820	33
821	16
822	31
823	24
824	22
825	23
826	19
827	21
828	10
829	11
830	14
831	4
832	10
833	4
834	10
835	4
836	4
837	9
838	4
839	6
840	5
841	5
842	7
843	8
844	2
845	2
846	3
847	4
848	4
849	4
850	6
851	6
852	1
853	4
854	4
855	2
856	4
857	4
858	2
859	1
860	8
861	1
862	2
863	3
864	2
865	3
866	6
867	3
868	7
869	4
870	1
871	2
872	4
873	5
874	3
875	1
876	1
877	2
878	7
879	0
880	2
881	3
882	0
883	2
884	2
885	2
886	0
887	2
888	6
889	1
890	3
891	2
892	1
893	3
894	0
895	4
896	3
897	3
898	1
899	2
900	2
901	3
902	2
903	1
904	4
905	1
906	2
907	1
908	2
909	3
910	4
911	1
912	3
913	0
914	3
915	3
916	1
917	3
918	2
919	2
920	2
921	3
922	3
923	4
924	1
925	0
926	2
927	1
928	5
929	4
930	2
931	1
932	4
933	0
934	1
935	2
936	2
937	2
938	1
939	2
940	0
941	2
942	1
943	2
944	0
945	1
946	1
947	0
948	1
949	3
950	2
951	2
952	1
953	3
954	1
955	2
956	1
957	2
958	0
959	3
960	2
961	1
962	0
963	3
964	0
965	3
966	0
967	2
968	2
969	4
970	2
971	3
972	1
973	1
974	1
975	2
976	3
977	1
978	1
979	3
980	0
981	2
982	0
983	0
984	2
985	1
986	1
987	1
988	2
989	3
990	2
991	2
992	2
993	1
994	2
995	0
996	1
997	3
998	0
999	1
1000	5
1001	2
1002	3
1003	2
1004	1
1005	1
1006	0
1007	1
1008	0
1009	0
1010	0
1011	0
1012	0
1013	0
1014	0
1015	0
1016	0
1017	0
1018	0
1019	0
1020	0
1021	0
1022	0
1023	0
