0	0
1	0
2	0
3	0
4	0
5	0
6	0
7	0
8	0
9	0
10	0
11	0
12	0
13	0
14	29
15	1638
16	1799
17	1602
18	1361
19	1177
20	1118
21	1054
22	1034
23	1007
24	1038
25	955
26	1068
27	949
28	995
29	1032
30	992
31	959
32	973
33	978
34	981
35	949
36	970
37	959
38	951
39	1008
40	1002
41	1029
42	993
43	1009
44	980
45	1003
46	989
47	963
48	944
49	968
50	957
51	946
52	990
53	938
54	965
55	950
56	969
57	979
58	943
59	1010
60	967
61	1005
62	1022
63	1056
64	1064
65	1062
66	1079
67	1143
68	1114
69	1096
70	1161
71	1189
72	1191
73	1212
74	1261
75	1185
76	1180
77	1152
78	1265
79	1197
80	1222
81	1156
82	1180
83	1199
84	1199
85	1133
86	1150
87	1168
88	1179
89	1157
90	1158
91	1151
92	1161
93	1091
94	1109
95	1105
96	1145
97	1097
98	1067
99	1130
100	1015
101	1107
102	1075
103	1125
104	1084
105	1052
106	1088
107	1060
108	1056
109	1023
110	1092
111	1038
112	1060
113	1020
114	1091
115	1076
116	1010
117	1015
118	1083
119	987
120	1027
121	998
122	1028
123	999
124	978
125	995
126	1008
127	997
128	945
129	990
130	1052
131	999
132	998
133	950
134	992
135	1043
136	928
137	975
138	1025
139	967
140	1000
141	980
142	941
143	954
144	1002
145	945
146	977
147	890
148	960
149	908
150	957
151	928
152	987
153	978
154	939
155	948
156	942
157	970
158	942
159	899
160	972
161	910
162	955
163	942
164	917
165	1000
166	885
167	911
168	923
169	876
170	946
171	910
172	950
173	953
174	946
175	915
176	845
177	916
178	911
179	947
180	912
181	880
182	886
183	940
184	923
185	863
186	854
187	926
188	856
189	945
190	925
191	926
192	901
193	885
194	904
195	886
196	954
197	921
198	964
199	933
200	959
201	836
202	867
203	884
204	882
205	915
206	904
207	890
208	940
209	881
210	867
211	848
212	905
213	916
214	905
215	876
216	908
217	943
218	890
219	830
220	875
221	913
222	864
223	866
224	919
225	863
226	836
227	867
228	897
229	859
230	837
231	815
232	894
233	861
234	874
235	848
236	875
237	910
238	889
239	873
240	879
241	857
242	875
243	900
244	869
245	887
246	942
247	907
248	847
249	890
250	901
251	857
252	915
253	932
254	859
255	823
256	870
257	854
258	859
259	899
260	897
261	882
262	854
263	880
264	859
265	819
266	841
267	846
268	855
269	790
270	853
271	841
272	809
273	860
274	848
275	861
276	791
277	795
278	803
279	780
280	836
281	773
282	742
283	817
284	765
285	830
286	803
287	757
288	774
289	771
290	744
291	723
292	776
293	801
294	725
295	758
296	710
297	744
298	708
299	730
300	658
301	663
302	709
303	658
304	682
305	696
306	655
307	606
308	604
309	603
310	624
311	640
312	598
313	636
314	555
315	563
316	526
317	565
318	545
319	578
320	634
321	587
322	617
323	626
324	648
325	640
326	711
327	732
328	729
329	870
330	835
331	939
332	1072
333	1104
334	1262
335	1292
336	1462
337	1555
338	1755
339	1867
340	1965
341	2317
342	2476
343	2570
344	2863
345	3067
346	3282
347	3525
348	3835
349	4090
350	4319
351	4489
352	4827
353	4993
354	5144
355	5540
356	5485
357	5804
358	5761
359	6106
360	6266
361	6212
362	6325
363	6466
364	6301
365	6361
366	6307
367	6175
368	5951
369	5852
370	5748
371	5503
372	5332
373	5185
374	4987
375	4744
376	4659
377	4328
378	4263
379	3965
380	3902
381	3653
382	3624
383	3498
384	3311
385	3243
386	3197
387	3169
388	3242
389	3244
390	3110
391	3236
392	3152
393	3282
394	3506
395	3500
396	3619
397	3828
398	3799
399	4009
400	4235
401	4353
402	4446
403	4564
404	4695
405	4932
406	4980
407	5033
408	5215
409	5186
410	5290
411	5276
412	5336
413	5217
414	5267
415	5068
416	5059
417	4945
418	4910
419	4701
420	4512
421	4462
422	4196
423	4023
424	3893
425	3746
426	3490
427	3344
428	3073
429	2962
430	2714
431	2458
432	2398
433	2186
434	2147
435	1922
436	1712
437	1514
438	1489
439	1306
440	1204
441	1136
442	1024
443	939
444	852
445	806
446	716
447	694
448	595
449	549
450	554
451	505
452	425
453	408
454	422
455	416
456	407
457	394
458	362
459	337
460	341
461	329
462	332
463	295
464	301
465	298
466	300
467	300
468	330
469	293
470	293
471	286
472	281
473	302
474	325
475	283
476	297
477	287
478	305
479	317
480	267
481	292
482	275
483	280
484	306
485	291
486	293
487	317
488	287
489	292
490	298
491	295
492	271
493	285
494	301
495	279
496	281
497	294
498	265
499	286
500	297
501	269
502	243
503	276
504	267
505	284
506	281
507	255
508	271
509	289
510	279
511	294
512	276
513	217
514	257
515	226
516	251
517	271
518	299
519	254
520	231
521	234
522	258
523	253
524	270
525	256
526	263
527	276
528	248
529	254
530	262
531	272
532	292
533	247
534	236
535	253
536	286
537	244
538	243
539	227
540	254
541	243
542	231
543	234
544	233
545	221
546	255
547	243
548	228
549	256
550	249
551	230
552	251
553	206
554	207
555	211
556	248
557	254
558	253
559	233
560	228
561	235
562	242
563	220
564	257
565	225
566	223
567	226
568	231
569	232
570	230
571	219
572	213
573	226
574	225
575	222
576	220
577	203
578	243
579	218
580	214
581	220
582	213
583	254
584	233
585	198
586	249
587	195
588	224
589	194
590	200
591	207
592	243
593	205
594	215
595	199
596	204
597	204
598	223
599	204
600	245
601	222
602	212
603	220
604	211
605	203
606	236
607	225
608	241
609	226
610	224
611	187
612	212
613	228
614	192
615	234
616	243
617	211
618	193
619	202
620	215
621	218
622	220
623	193
624	215
625	197
626	228
627	211
628	213
629	209
630	206
631	210
632	217
633	195
634	190
635	196
636	212
637	197
638	177
639	200
640	207
641	183
642	202
643	205
644	207
645	222
646	210
647	182
648	197
649	197
650	182
651	179
652	196
653	191
654	195
655	196
656	188
657	181
658	183
659	179
660	160
661	182
662	166
663	203
664	194
665	170
666	174
667	149
668	155
669	179
670	158
671	160
672	147
673	187
674	178
675	166
676	183
677	177
678	170
679	170
680	165
681	165
682	158
683	161
684	170
685	149
686	174
687	159
688	143
689	158
690	156
691	155
692	128
693	180
694	139
695	165
696	151
697	135
698	116
699	134
700	139
701	110
702	146
703	120
704	137
705	144
706	118
707	127
708	120
709	116
710	136
711	118
712	107
713	105
714	131
715	130
716	118
717	131
718	125
719	118
720	145
721	137
722	170
723	165
724	163
725	183
726	196
727	193
728	197
729	231
730	221
731	236
732	239
733	250
734	277
735	293
736	351
737	332
738	377
739	391
740	419
741	386
742	446
743	490
744	525
745	517
746	583
747	536
748	589
749	597
750	626
751	673
752	680
753	728
754	731
755	777
756	794
757	862
758	827
759	863
760	870
761	902
762	870
763	926
764	920
765	913
766	981
767	948
768	945
769	910
770	934
771	913
772	955
773	924
774	935
775	919
776	894
777	855
778	867
779	799
780	816
781	792
782	750
783	723
784	678
785	678
786	658
787	633
788	611
789	625
790	600
791	491
792	483
793	470
794	437
795	420
796	387
797	392
798	373
799	350
800	297
801	254
802	267
803	297
804	238
805	210
806	207
807	160
808	161
809	151
810	139
811	129
812	122
813	95
814	76
815	83
816	78
817	57
818	72
819	68
820	53
821	44
822	38
823	44
824	35
825	37
826	30
827	22
828	19
829	23
830	20
831	22
832	8
833	14
834	16
835	10
836	10
837	14
838	11
839	5
840	9
841	5
842	5
843	4
844	4
845	7
846	6
847	4
848	6
849	5
850	1
851	5
852	3
853	3
854	3
855	1
856	5
857	2
858	3
859	4
860	4
861	4
862	1
863	4
864	4
865	5
866	2
867	2
868	4
869	3
870	1
871	6
872	5
873	4
874	3
875	2
876	3
877	2
878	6
879	1
880	2
881	3
882	2
883	4
884	1
885	7
886	1
887	7
888	2
889	3
890	5
891	2
892	3
893	3
894	2
895	1
896	2
897	1
898	3
899	0
900	2
901	2
902	1
903	5
904	1
905	3
906	5
907	1
908	2
909	3
910	2
911	1
912	2
913	3
914	3
915	5
916	3
917	1
918	2
919	0
920	1
921	3
922	2
923	3
924	10
925	0
926	1
927	1
928	2
929	1
930	4
931	5
932	3
933	3
934	3
935	3
936	2
937	2
938	3
939	3
940	2
941	0
942	4
943	1
944	1
945	1
946	5
947	2
948	2
949	0
950	5
951	2
952	2
953	3
954	5
955	2
956	2
957	0
958	2
959	1
960	4
961	3
962	2
963	1
964	3
965	1
966	2
967	2
968	0
969	0
970	1
971	0
972	1
973	2
974	3
975	3
976	1
977	0
978	2
979	2
980	1
981	3
982	2
983	2
984	1
985	0
986	1
987	1
988	1
989	2
990	0
991	1
992	1
993	4
994	1
995	2
996	0
997	1
998	3
999	1
1000	3
1001	0
1002	3
1003	2
1004	1
1005	1
1006	3
1007	1
1008	0
1009	0
1010	0
1011	0
1012	0
1013	0
1014	0
1015	0
1016	0
1017	0
1018	0
1019	0
1020	0
1021	0
1022	0
1023	0
