0	0
1	0
2	0
3	0
4	0
5	0
6	0
7	0
8	0
9	0
10	0
11	0
12	0
13	0
14	11
15	842
16	861
17	722
18	581
19	439
20	398
21	430
22	351
23	350
24	330
25	356
26	380
27	358
28	335
29	329
30	379
31	318
32	310
33	374
34	341
35	366
36	345
37	328
38	335
39	349
40	340
41	310
42	303
43	304
44	313
45	327
46	291
47	339
48	308
49	325
50	295
51	312
52	308
53	301
54	305
55	322
56	327
57	345
58	331
59	379
60	351
61	367
62	385
63	367
64	357
65	369
66	372
67	365
68	397
69	363
70	343
71	353
72	340
73	341
74	371
75	347
76	347
77	351
78	316
79	378
80	300
81	321
82	346
83	341
84	365
85	339
86	315
87	337
88	341
89	331
90	342
91	317
92	343
93	290
94	340
95	337
96	351
97	345
98	349
99	345
100	329
101	312
102	351
103	353
104	330
105	337
106	333
107	317
108	321
109	306
110	296
111	284
112	248
113	230
114	253
115	252
116	248
117	218
118	201
119	239
120	211
121	213
122	233
123	271
124	228
125	241
126	267
127	256
128	278
129	309
130	304
131	337
132	353
133	389
134	423
135	506
136	512
137	582
138	668
139	743
140	861
141	1020
142	1243
143	1425
144	1676
145	1976
146	2199
147	2658
148	3004
149	3297
150	3931
151	4437
152	4675
153	5409
154	5848
155	6243
156	6350
157	6773
158	6901
159	7168
160	7084
161	7049
162	6949
163	6808
164	6625
165	6204
166	5776
167	5312
168	4823
169	4441
170	3999
171	3465
172	3157
173	2698
174	2287
175	2031
176	1764
177	1445
178	1177
179	1054
180	869
181	724
182	620
183	522
184	454
185	365
186	339
187	290
188	291
189	263
190	235
191	211
192	240
193	205
194	184
195	187
196	215
197	183
198	207
199	195
200	219
201	183
202	159
203	208
204	212
205	221
206	197
207	219
208	231
209	199
210	234
211	229
212	214
213	221
214	223
215	228
216	201
217	229
218	215
219	230
220	231
221	199
222	217
223	187
224	209
225	208
226	217
227	202
228	229
229	205
230	236
231	206
232	230
233	233
234	210
235	194
236	203
237	199
238	186
239	195
240	180
241	229
242	185
243	196
244	183
245	197
246	183
247	184
248	199
249	166
250	202
251	177
252	196
253	186
254	166
255	170
256	180
257	175
258	155
259	171
260	165
261	160
262	167
263	161
264	156
265	158
266	186
267	164
268	165
269	143
270	163
271	172
272	170
273	173
274	159
275	149
276	145
277	167
278	146
279	152
280	151
281	168
282	172
283	139
284	138
285	148
286	142
287	150
288	152
289	139
290	118
291	155
292	136
293	138
294	178
295	132
296	144
297	129
298	143
299	151
300	141
301	158
302	138
303	131
304	130
305	171
306	126
307	128
308	124
309	123
310	157
311	148
312	121
313	139
314	127
315	140
316	125
317	137
318	132
319	130
320	144
321	140
322	120
323	122
324	117
325	129
326	130
327	128
328	137
329	129
330	109
331	101
332	107
333	124
334	144
335	90
336	109
337	116
338	121
339	97
340	115
341	106
342	103
343	104
344	116
345	126
346	109
347	98
348	134
349	132
350	134
351	99
352	136
353	117
354	125
355	132
356	126
357	126
358	127
359	152
360	162
361	167
362	208
363	197
364	208
365	214
366	214
367	250
368	280
369	268
370	304
371	338
372	351
373	369
374	404
375	403
376	443
377	476
378	517
379	491
380	537
381	535
382	561
383	535
384	645
385	671
386	645
387	667
388	673
389	671
390	675
391	715
392	636
393	638
394	619
395	655
396	653
397	644
398	648
399	576
400	559
401	530
402	559
403	487
404	508
405	470
406	463
407	430
408	420
409	357
410	374
411	346
412	304
413	330
414	301
415	253
416	263
417	250
418	229
419	234
420	236
421	206
422	181
423	187
424	177
425	202
426	171
427	169
428	162
429	153
430	162
431	155
432	151
433	117
434	169
435	130
436	149
437	156
438	154
439	124
440	122
441	135
442	121
443	136
444	128
445	111
446	137
447	112
448	135
449	139
450	151
451	142
452	149
453	131
454	129
455	144
456	130
457	141
458	142
459	139
460	127
461	115
462	102
463	128
464	131
465	126
466	117
467	141
468	105
469	128
470	111
471	122
472	126
473	122
474	121
475	111
476	98
477	129
478	106
479	116
480	121
481	107
482	117
483	91
484	94
485	110
486	118
487	100
488	108
489	85
490	100
491	104
492	104
493	87
494	112
495	96
496	104
497	98
498	107
499	99
500	109
501	102
502	129
503	134
504	135
505	135
506	140
507	144
508	161
509	185
510	197
511	223
512	215
513	225
514	266
515	274
516	278
517	318
518	334
519	383
520	389
521	394
522	471
523	444
524	529
525	531
526	520
527	570
528	605
529	675
530	670
531	648
532	671
533	781
534	755
535	755
536	819
537	816
538	841
539	854
540	827
541	874
542	847
543	882
544	838
545	843
546	796
547	782
548	850
549	825
550	823
551	716
552	701
553	703
554	733
555	739
556	641
557	629
558	582
559	592
560	556
561	511
562	492
563	488
564	429
565	413
566	347
567	338
568	322
569	314
570	270
571	257
572	232
573	212
574	202
575	165
576	159
577	142
578	130
579	117
580	106
581	85
582	95
583	75
584	60
585	62
586	55
587	42
588	47
589	46
590	38
591	36
592	34
593	41
594	28
595	33
596	21
597	30
598	17
599	21
600	11
601	15
602	12
603	16
604	12
605	12
606	15
607	16
608	15
609	9
610	11
611	11
612	14
613	8
614	7
615	15
616	19
617	19
618	8
619	12
620	12
621	9
622	9
623	8
624	12
625	7
626	9
627	7
628	7
629	3
630	7
631	4
632	11
633	4
634	5
635	6
636	7
637	11
638	4
639	6
640	8
641	10
642	7
643	4
644	6
645	6
646	3
647	4
648	4
649	8
650	2
651	6
652	4
653	5
654	8
655	6
656	4
657	5
658	5
659	1
660	6
661	4
662	3
663	3
664	2
665	4
666	2
667	5
668	1
669	4
670	1
671	5
672	3
673	3
674	3
675	1
676	2
677	5
678	2
679	3
680	2
681	1
682	2
683	1
684	0
685	1
686	1
687	1
688	5
689	3
690	1
691	1
692	1
693	0
694	0
695	0
696	1
697	0
698	1
699	1
700	1
701	0
702	1
703	2
704	2
705	2
706	1
707	1
708	0
709	0
710	1
711	1
712	0
713	0
714	0
715	0
716	0
717	0
718	0
719	1
720	1
721	0
722	2
723	0
724	1
725	1
726	0
727	0
728	0
729	0
730	0
731	1
732	1
733	1
734	0
735	0
736	0
737	1
738	1
739	0
740	0
741	0
742	0
743	0
744	0
745	0
746	1
747	0
748	0
749	1
750	1
751	0
752	1
753	0
754	0
755	1
756	1
757	0
758	0
759	1
760	0
761	1
762	1
763	0
764	1
765	1
766	0
767	2
768	0
769	1
770	0
771	0
772	0
773	0
774	0
775	1
776	0
777	0
778	1
779	0
780	1
781	1
782	2
783	0
784	0
785	3
786	0
787	0
788	1
789	0
790	2
791	0
792	0
793	0
794	0
795	1
796	0
797	1
798	1
799	0
800	0
801	0
802	0
803	0
804	0
805	0
806	1
807	1
808	0
809	1
810	0
811	0
812	2
813	0
814	0
815	0
816	0
817	1
818	0
819	0
820	0
821	0
822	0
823	0
824	0
825	1
826	0
827	0
828	0
829	0
830	0
831	0
832	1
833	0
834	0
835	0
836	0
837	1
838	0
839	0
840	1
841	0
842	0
843	0
844	0
845	0
846	1
847	0
848	0
849	0
850	0
851	0
852	0
853	0
854	0
855	0
856	0
857	0
858	0
859	0
860	0
861	0
862	2
863	1
864	0
865	0
866	0
867	0
868	0
869	0
870	0
871	0
872	1
873	0
874	0
875	0
876	0
877	0
878	0
879	0
880	0
881	0
882	0
883	0
884	0
885	0
886	0
887	0
888	0
889	0
890	0
891	0
892	0
893	0
894	0
895	0
896	0
897	0
898	0
899	0
900	0
901	0
902	1
903	0
904	0
905	0
906	1
907	0
908	0
909	0
910	0
911	0
912	0
913	0
914	0
915	0
916	0
917	0
918	0
919	0
920	0
921	0
922	0
923	1
924	0
925	0
926	0
927	0
928	1
929	1
930	1
931	1
932	0
933	0
934	0
935	0
936	0
937	0
938	0
939	0
940	0
941	0
942	0
943	0
944	0
945	0
946	0
947	0
948	0
949	0
950	0
951	0
952	0
953	0
954	0
955	0
956	0
957	0
958	0
959	0
960	0
961	0
962	0
963	0
964	0
965	0
966	0
967	0
968	0
969	0
970	0
971	0
972	0
973	0
974	0
975	1
976	0
977	0
978	0
979	0
980	0
981	0
982	0
983	0
984	0
985	0
986	0
987	0
988	1
989	0
990	1
991	0
992	0
993	0
994	0
995	0
996	0
997	0
998	0
999	0
1000	0
1001	0
1002	1
1003	0
1004	0
1005	1
1006	0
1007	0
1008	0
1009	0
1010	0
1011	0
1012	0
1013	0
1014	0
1015	0
1016	0
1017	0
1018	0
1019	0
1020	0
1021	0
1022	0
1023	0
