0	0
1	0
2	0
3	0
4	0
5	0
6	0
7	0
8	0
9	0
10	0
11	0
12	0
13	0
14	18
15	1659
16	1830
17	1600
18	1398
19	1251
20	1116
21	1117
22	1028
23	1057
24	1015
25	995
26	989
27	963
28	1028
29	1016
30	935
31	973
32	954
33	965
34	983
35	983
36	921
37	975
38	970
39	896
40	947
41	1015
42	995
43	981
44	976
45	943
46	957
47	974
48	991
49	974
50	951
51	947
52	985
53	945
54	972
55	1006
56	1054
57	1029
58	942
59	957
60	971
61	1082
62	1039
63	1053
64	1107
65	1079
66	1078
67	1132
68	1126
69	1145
70	1111
71	1226
72	1169
73	1131
74	1200
75	1190
76	1235
77	1139
78	1241
79	1243
80	1215
81	1209
82	1200
83	1210
84	1173
85	1201
86	1184
87	1147
88	1198
89	1117
90	1169
91	1121
92	1146
93	1057
94	1143
95	1171
96	1185
97	1063
98	1118
99	1150
100	1098
101	1111
102	1108
103	1063
104	1068
105	1096
106	1055
107	1035
108	1082
109	1015
110	1077
111	1070
112	1023
113	1054
114	1059
115	1018
116	1035
117	996
118	1019
119	1041
120	1027
121	990
122	999
123	1028
124	1006
125	1064
126	1029
127	1028
128	978
129	1032
130	971
131	971
132	989
133	971
134	944
135	952
136	959
137	945
138	998
139	973
140	1014
141	987
142	908
143	1002
144	938
145	970
146	922
147	934
148	937
149	935
150	965
151	979
152	928
153	930
154	933
155	945
156	917
157	970
158	911
159	919
160	944
161	967
162	949
163	931
164	1010
165	914
166	887
167	950
168	890
169	956
170	959
171	929
172	953
173	943
174	997
175	933
176	916
177	886
178	906
179	938
180	954
181	909
182	955
183	904
184	916
185	901
186	884
187	933
188	886
189	962
190	876
191	892
192	884
193	884
194	912
195	917
196	855
197	883
198	885
199	845
200	870
201	868
202	870
203	888
204	920
205	906
206	953
207	924
208	899
209	925
210	912
211	898
212	911
213	926
214	871
215	862
216	916
217	923
218	916
219	848
220	903
221	849
222	863
223	846
224	891
225	845
226	831
227	913
228	837
229	858
230	890
231	885
232	869
233	876
234	885
235	910
236	841
237	874
238	909
239	880
240	910
241	873
242	895
243	863
244	885
245	879
246	900
247	852
248	916
249	895
250	881
251	898
252	861
253	929
254	904
255	916
256	889
257	886
258	876
259	872
260	850
261	869
262	839
263	835
264	874
265	861
266	849
267	863
268	871
269	817
270	809
271	824
272	821
273	806
274	819
275	846
276	839
277	803
278	801
279	794
280	844
281	788
282	769
283	728
284	805
285	774
286	782
287	768
288	743
289	782
290	702
291	759
292	769
293	750
294	739
295	702
296	675
297	709
298	724
299	683
300	704
301	668
302	652
303	636
304	672
305	629
306	614
307	588
308	599
309	594
310	584
311	612
312	585
313	611
314	623
315	580
316	557
317	535
318	586
319	553
320	555
321	610
322	601
323	650
324	659
325	660
326	698
327	701
328	815
329	775
330	923
331	935
332	1044
333	1108
334	1306
335	1284
336	1510
337	1639
338	1736
339	1894
340	2039
341	2247
342	2437
343	2682
344	2977
345	3093
346	3401
347	3588
348	3865
349	4074
350	4352
351	4617
352	4848
353	5030
354	5320
355	5517
356	5529
357	5930
358	5872
359	6008
360	6212
361	6257
362	6415
363	6301
364	6363
365	6275
366	6095
367	6131
368	5878
369	5957
370	5622
371	5633
372	5457
373	5140
374	4906
375	4799
376	4716
377	4400
378	4305
379	3947
380	3830
381	3696
382	3557
383	3294
384	3378
385	3093
386	3172
387	3100
388	3166
389	3107
390	3107
391	3160
392	3400
393	3422
394	3438
395	3622
396	3799
397	3756
398	3893
399	4151
400	4218
401	4364
402	4449
403	4659
404	4764
405	4898
406	4905
407	4993
408	5136
409	5191
410	5193
411	5261
412	5275
413	5200
414	5208
415	5134
416	5119
417	4957
418	4920
419	4630
420	4542
421	4312
422	4360
423	4018
424	3930
425	3702
426	3424
427	3273
428	3048
429	2937
430	2805
431	2564
432	2315
433	2088
434	2007
435	1885
436	1672
437	1569
438	1440
439	1323
440	1094
441	1088
442	1012
443	923
444	872
445	822
446	713
447	686
448	612
449	577
450	510
451	471
452	465
453	424
454	385
455	392
456	390
457	357
458	334
459	325
460	345
461	334
462	338
463	321
464	315
465	304
466	293
467	317
468	297
469	316
470	285
471	295
472	329
473	272
474	300
475	285
476	315
477	289
478	281
479	298
480	300
481	292
482	302
483	265
484	286
485	293
486	265
487	284
488	281
489	283
490	273
491	299
492	273
493	302
494	290
495	278
496	291
497	279
498	311
499	292
500	296
501	300
502	277
503	272
504	274
505	278
506	270
507	256
508	257
509	275
510	281
511	281
512	267
513	266
514	287
515	280
516	269
517	263
518	242
519	251
520	273
521	271
522	259
523	244
524	268
525	239
526	237
527	246
528	256
529	254
530	246
531	256
532	279
533	241
534	243
535	258
536	250
537	255
538	282
539	231
540	238
541	262
542	231
543	251
544	235
545	249
546	232
547	229
548	250
549	227
550	226
551	261
552	215
553	234
554	233
555	246
556	230
557	231
558	237
559	233
560	239
561	239
562	224
563	259
564	248
565	257
566	239
567	231
568	209
569	216
570	245
571	215
572	243
573	224
574	247
575	243
576	241
577	240
578	239
579	250
580	211
581	231
582	222
583	223
584	232
585	211
586	224
587	253
588	236
589	245
590	216
591	230
592	235
593	217
594	238
595	235
596	213
597	214
598	218
599	210
600	209
601	245
602	233
603	241
604	206
605	219
606	196
607	220
608	208
609	214
610	228
611	201
612	224
613	213
614	224
615	212
616	236
617	232
618	200
619	212
620	200
621	222
622	218
623	191
624	194
625	211
626	242
627	198
628	223
629	200
630	211
631	210
632	220
633	204
634	204
635	175
636	212
637	192
638	212
639	202
640	212
641	185
642	186
643	183
644	189
645	248
646	228
647	204
648	196
649	197
650	174
651	204
652	175
653	179
654	197
655	183
656	168
657	183
658	166
659	197
660	180
661	185
662	191
663	185
664	161
665	177
666	174
667	161
668	171
669	178
670	188
671	167
672	165
673	174
674	173
675	162
676	167
677	167
678	165
679	171
680	159
681	163
682	156
683	154
684	154
685	155
686	178
687	151
688	162
689	152
690	159
691	144
692	128
693	161
694	140
695	134
696	156
697	155
698	136
699	118
700	138
701	131
702	142
703	151
704	146
705	139
706	130
707	137
708	121
709	133
710	121
711	125
712	139
713	140
714	147
715	131
716	123
717	127
718	132
719	160
720	158
721	123
722	151
723	163
724	180
725	151
726	188
727	173
728	204
729	207
730	245
731	236
732	263
733	296
734	296
735	323
736	338
737	329
738	348
739	407
740	406
741	425
742	468
743	503
744	537
745	550
746	585
747	610
748	625
749	666
750	642
751	680
752	734
753	746
754	740
755	728
756	810
757	845
758	885
759	860
760	855
761	856
762	934
763	863
764	887
765	917
766	925
767	900
768	978
769	912
770	925
771	941
772	1008
773	890
774	946
775	903
776	867
777	819
778	817
779	792
780	811
781	786
782	757
783	744
784	675
785	680
786	627
787	598
788	590
789	574
790	615
791	549
792	477
793	485
794	438
795	434
796	372
797	340
798	389
799	327
800	322
801	306
802	281
803	238
804	240
805	221
806	200
807	175
808	164
809	151
810	137
811	124
812	121
813	122
814	108
815	80
816	68
817	70
818	66
819	51
820	53
821	45
822	47
823	34
824	30
825	32
826	20
827	26
828	20
829	25
830	10
831	15
832	9
833	22
834	8
835	17
836	10
837	8
838	11
839	9
840	6
841	5
842	3
843	8
844	4
845	3
846	1
847	5
848	8
849	5
850	3
851	3
852	5
853	4
854	3
855	4
856	6
857	2
858	2
859	2
860	6
861	2
862	2
863	4
864	2
865	3
866	1
867	3
868	2
869	5
870	3
871	5
872	1
873	2
874	3
875	1
876	2
877	3
878	1
879	3
880	6
881	4
882	1
883	4
884	2
885	3
886	4
887	4
888	2
889	4
890	7
891	2
892	2
893	3
894	1
895	2
896	2
897	3
898	2
899	2
900	5
901	4
902	3
903	1
904	2
905	0
906	4
907	5
908	2
909	2
910	2
911	3
912	1
913	5
914	3
915	2
916	1
917	3
918	2
919	1
920	1
921	1
922	2
923	1
924	1
925	1
926	0
927	1
928	2
929	0
930	6
931	1
932	2
933	3
934	2
935	1
936	3
937	2
938	1
939	3
940	2
941	4
942	2
943	0
944	0
945	2
946	3
947	2
948	3
949	1
950	3
951	2
952	3
953	2
954	1
955	0
956	3
957	2
958	3
959	2
960	3
961	2
962	1
963	0
964	3
965	2
966	1
967	3
968	1
969	1
970	1
971	0
972	3
973	1
974	0
975	1
976	1
977	2
978	0
979	3
980	0
981	2
982	2
983	2
984	0
985	3
986	0
987	3
988	1
989	1
990	3
991	2
992	1
993	0
994	1
995	2
996	0
997	0
998	2
999	1
1000	1
1001	3
1002	1
1003	2
1004	1
1005	5
1006	1
1007	1
1008	0
1009	0
1010	0
1011	0
1012	0
1013	0
1014	0
1015	0
1016	0
1017	0
1018	0
1019	0
1020	0
1021	0
1022	0
1023	0
