0	0
1	0
2	0
3	0
4	0
5	0
6	0
7	0
8	0
9	0
10	0
11	0
12	0
13	0
14	28
15	1670
16	1862
17	1693
18	1400
19	1259
20	1198
21	1061
22	1048
23	1061
24	971
25	996
26	975
27	963
28	945
29	987
30	1013
31	939
32	1042
33	966
34	1036
35	994
36	990
37	1025
38	1030
39	985
40	992
41	942
42	978
43	957
44	1000
45	1009
46	1012
47	978
48	938
49	962
50	961
51	981
52	1035
53	950
54	985
55	982
56	1000
57	1020
58	971
59	1013
60	1018
61	955
62	1072
63	1094
64	1032
65	1068
66	1122
67	1142
68	1171
69	1195
70	1228
71	1168
72	1251
73	1217
74	1172
75	1243
76	1214
77	1254
78	1242
79	1248
80	1233
81	1180
82	1146
83	1146
84	1201
85	1224
86	1264
87	1106
88	1136
89	1165
90	1143
91	1135
92	1174
93	1100
94	1148
95	1072
96	1133
97	1092
98	1177
99	1110
100	1034
101	1056
102	1060
103	1120
104	1004
105	1004
106	1047
107	1085
108	1045
109	1122
110	1043
111	1095
112	1077
113	1101
114	1047
115	989
116	1042
117	1041
118	1016
119	1074
120	1051
121	1045
122	988
123	974
124	976
125	1019
126	986
127	983
128	1017
129	954
130	964
131	1027
132	1025
133	994
134	998
135	970
136	989
137	1051
138	998
139	966
140	966
141	993
142	1005
143	1042
144	918
145	955
146	939
147	972
148	997
149	973
150	931
151	981
152	977
153	1014
154	983
155	1010
156	969
157	890
158	996
159	962
160	939
161	922
162	968
163	940
164	909
165	997
166	933
167	922
168	931
169	896
170	959
171	942
172	908
173	908
174	910
175	924
176	888
177	961
178	938
179	930
180	881
181	879
182	946
183	954
184	971
185	912
186	896
187	900
188	929
189	931
190	983
191	913
192	886
193	920
194	964
195	907
196	913
197	917
198	837
199	960
200	912
201	908
202	951
203	872
204	939
205	890
206	914
207	929
208	938
209	890
210	915
211	882
212	912
213	989
214	897
215	883
216	888
217	891
218	974
219	905
220	877
221	899
222	936
223	881
224	871
225	856
226	899
227	874
228	872
229	836
230	890
231	892
232	898
233	899
234	890
235	854
236	885
237	910
238	931
239	868
240	888
241	923
242	923
243	889
244	894
245	923
246	891
247	902
248	937
249	860
250	888
251	898
252	899
253	919
254	917
255	947
256	892
257	862
258	897
259	835
260	872
261	876
262	889
263	860
264	852
265	873
266	831
267	820
268	869
269	847
270	819
271	818
272	833
273	806
274	828
275	777
276	801
277	843
278	802
279	780
280	815
281	816
282	776
283	783
284	792
285	783
286	752
287	775
288	796
289	726
290	785
291	744
292	746
293	708
294	705
295	707
296	675
297	682
298	643
299	638
300	670
301	654
302	641
303	629
304	616
305	604
306	660
307	581
308	643
309	569
310	598
311	582
312	633
313	618
314	607
315	590
316	619
317	640
318	613
319	677
320	697
321	715
322	728
323	744
324	863
325	953
326	999
327	1086
328	1130
329	1277
330	1356
331	1534
332	1649
333	1816
334	2009
335	2083
336	2403
337	2505
338	2734
339	3021
340	3201
341	3514
342	3656
343	3888
344	4121
345	4519
346	4735
347	5106
348	5233
349	5464
350	5645
351	5841
352	5974
353	6194
354	6229
355	6342
356	6321
357	6433
358	6373
359	6486
360	6337
361	6144
362	5952
363	5920
364	5897
365	5657
366	5487
367	5346
368	5113
369	4961
370	4658
371	4476
372	4302
373	3969
374	3868
375	3731
376	3578
377	3465
378	3516
379	3177
380	3224
381	3097
382	3145
383	3080
384	3213
385	3196
386	3273
387	3435
388	3471
389	3588
390	3652
391	3908
392	4020
393	4107
394	4421
395	4439
396	4420
397	4702
398	4872
399	4899
400	5058
401	5118
402	5097
403	5286
404	5174
405	5267
406	5221
407	5353
408	5229
409	5255
410	5013
411	5078
412	4855
413	4656
414	4484
415	4403
416	4182
417	4048
418	3822
419	3551
420	3442
421	3238
422	3058
423	2966
424	2646
425	2534
426	2402
427	2097
428	1916
429	1860
430	1629
431	1515
432	1368
433	1207
434	1197
435	1079
436	992
437	932
438	828
439	738
440	654
441	597
442	592
443	551
444	530
445	529
446	461
447	440
448	392
449	391
450	386
451	339
452	341
453	343
454	370
455	317
456	294
457	296
458	300
459	316
460	317
461	303
462	300
463	325
464	323
465	289
466	296
467	310
468	292
469	299
470	284
471	286
472	294
473	308
474	290
475	279
476	280
477	298
478	301
479	338
480	281
481	288
482	277
483	262
484	309
485	268
486	289
487	261
488	265
489	285
490	284
491	253
492	259
493	286
494	296
495	292
496	273
497	282
498	279
499	281
500	268
501	258
502	298
503	294
504	269
505	282
506	270
507	253
508	276
509	249
510	262
511	284
512	274
513	269
514	235
515	288
516	273
517	261
518	258
519	259
520	251
521	230
522	260
523	256
524	234
525	288
526	249
527	252
528	248
529	257
530	260
531	237
532	251
533	249
534	250
535	248
536	232
537	240
538	243
539	235
540	253
541	268
542	245
543	221
544	223
545	253
546	218
547	228
548	257
549	244
550	227
551	250
552	257
553	245
554	245
555	224
556	240
557	217
558	225
559	227
560	232
561	214
562	240
563	246
564	244
565	235
566	240
567	220
568	218
569	213
570	254
571	245
572	237
573	258
574	221
575	204
576	254
577	226
578	230
579	240
580	250
581	192
582	220
583	266
584	247
585	204
586	230
587	208
588	218
589	231
590	206
591	227
592	226
593	200
594	259
595	224
596	239
597	207
598	232
599	210
600	239
601	224
602	229
603	231
604	219
605	205
606	224
607	264
608	222
609	219
610	217
611	216
612	212
613	219
614	202
615	230
616	207
617	209
618	184
619	193
620	229
621	223
622	196
623	208
624	224
625	197
626	192
627	197
628	176
629	213
630	197
631	198
632	193
633	185
634	201
635	226
636	186
637	195
638	187
639	198
640	213
641	209
642	196
643	194
644	191
645	210
646	206
647	152
648	199
649	197
650	189
651	174
652	198
653	182
654	173
655	171
656	190
657	166
658	181
659	167
660	143
661	178
662	167
663	173
664	185
665	190
666	164
667	159
668	149
669	151
670	173
671	188
672	167
673	169
674	162
675	169
676	154
677	156
678	144
679	145
680	162
681	130
682	148
683	156
684	130
685	154
686	135
687	120
688	149
689	149
690	132
691	142
692	132
693	136
694	122
695	117
696	150
697	128
698	129
699	114
700	126
701	123
702	121
703	118
704	139
705	131
706	135
707	127
708	148
709	156
710	158
711	178
712	162
713	144
714	192
715	194
716	211
717	197
718	224
719	240
720	298
721	275
722	281
723	292
724	337
725	360
726	332
727	340
728	394
729	404
730	406
731	432
732	506
733	552
734	580
735	612
736	590
737	654
738	664
739	673
740	713
741	768
742	765
743	772
744	781
745	892
746	816
747	921
748	896
749	880
750	938
751	944
752	895
753	981
754	915
755	899
756	953
757	968
758	971
759	945
760	960
761	910
762	887
763	866
764	864
765	879
766	843
767	822
768	799
769	780
770	798
771	785
772	725
773	719
774	664
775	657
776	603
777	614
778	569
779	551
780	446
781	472
782	429
783	448
784	402
785	385
786	370
787	316
788	338
789	269
790	261
791	253
792	250
793	196
794	203
795	187
796	157
797	159
798	144
799	114
800	115
801	97
802	96
803	84
804	54
805	85
806	56
807	57
808	35
809	59
810	41
811	34
812	27
813	19
814	21
815	23
816	24
817	17
818	19
819	19
820	23
821	13
822	15
823	8
824	6
825	8
826	9
827	5
828	6
829	4
830	8
831	7
832	5
833	5
834	5
835	8
836	3
837	2
838	3
839	7
840	1
841	3
842	6
843	1
844	5
845	4
846	5
847	4
848	1
849	3
850	1
851	4
852	3
853	3
854	3
855	0
856	2
857	6
858	4
859	2
860	5
861	3
862	3
863	1
864	2
865	1
866	3
867	3
868	2
869	2
870	3
871	3
872	1
873	4
874	0
875	1
876	0
877	2
878	2
879	2
880	1
881	0
882	2
883	7
884	3
885	2
886	2
887	2
888	2
889	3
890	2
891	2
892	0
893	1
894	4
895	6
896	2
897	1
898	3
899	3
900	0
901	4
902	2
903	2
904	1
905	3
906	1
907	1
908	2
909	3
910	2
911	4
912	2
913	2
914	0
915	0
916	0
917	1
918	9
919	5
920	0
921	3
922	1
923	3
924	1
925	3
926	2
927	1
928	2
929	4
930	5
931	1
932	3
933	0
934	5
935	2
936	0
937	1
938	4
939	0
940	0
941	1
942	2
943	1
944	4
945	1
946	1
947	1
948	2
949	2
950	2
951	1
952	1
953	0
954	0
955	2
956	4
957	1
958	0
959	3
960	0
961	1
962	1
963	0
964	2
965	5
966	0
967	4
968	1
969	3
970	1
971	1
972	4
973	3
974	3
975	1
976	1
977	2
978	0
979	3
980	3
981	0
982	0
983	2
984	0
985	4
986	3
987	3
988	0
989	2
990	1
991	2
992	1
993	1
994	0
995	3
996	1
997	1
998	0
999	3
1000	1
1001	1
1002	2
1003	1
1004	3
1005	0
1006	2
1007	1
1008	0
1009	0
1010	0
1011	0
1012	0
1013	0
1014	0
1015	0
1016	0
1017	0
1018	0
1019	0
1020	0
1021	0
1022	0
1023	0
