0	0
1	0
2	0
3	0
4	0
5	0
6	0
7	0
8	0
9	0
10	0
11	0
12	0
13	0
14	8
15	789
16	795
17	719
18	534
19	444
20	410
21	391
22	387
23	336
24	325
25	323
26	324
27	357
28	360
29	307
30	363
31	355
32	346
33	350
34	336
35	326
36	320
37	309
38	339
39	302
40	325
41	349
42	316
43	304
44	356
45	335
46	295
47	284
48	265
49	298
50	293
51	266
52	308
53	320
54	293
55	348
56	344
57	362
58	346
59	306
60	298
61	345
62	349
63	378
64	346
65	394
66	326
67	354
68	355
69	350
70	366
71	338
72	346
73	352
74	356
75	323
76	308
77	336
78	343
79	356
80	322
81	336
82	319
83	323
84	344
85	324
86	342
87	299
88	334
89	341
90	353
91	332
92	345
93	335
94	321
95	328
96	346
97	327
98	335
99	321
100	316
101	380
102	332
103	306
104	301
105	318
106	320
107	304
108	292
109	299
110	283
111	261
112	254
113	280
114	254
115	232
116	240
117	231
118	237
119	198
120	218
121	207
122	239
123	203
124	213
125	210
126	254
127	258
128	241
129	261
130	285
131	271
132	331
133	340
134	371
135	429
136	411
137	496
138	532
139	621
140	663
141	817
142	961
143	1057
144	1293
145	1519
146	1716
147	2094
148	2357
149	2793
150	3156
151	3519
152	3975
153	4469
154	4970
155	5409
156	5933
157	5961
158	6416
159	6860
160	6929
161	7059
162	7061
163	6943
164	6710
165	6622
166	6388
167	5925
168	5581
169	5068
170	4791
171	4174
172	3957
173	3431
174	2974
175	2672
176	2316
177	1998
178	1728
179	1406
180	1210
181	948
182	869
183	689
184	587
185	500
186	453
187	381
188	321
189	311
190	290
191	260
192	226
193	224
194	209
195	187
196	225
197	192
198	202
199	189
200	207
201	185
202	196
203	190
204	183
205	198
206	203
207	206
208	216
209	228
210	211
211	221
212	195
213	234
214	192
215	211
216	186
217	226
218	209
219	218
220	220
221	230
222	208
223	219
224	240
225	231
226	220
227	210
228	198
229	210
230	216
231	218
232	187
233	213
234	204
235	229
236	194
237	237
238	214
239	206
240	193
241	198
242	204
243	175
244	202
245	192
246	190
247	193
248	197
249	202
250	198
251	172
252	193
253	187
254	162
255	147
256	198
257	162
258	169
259	172
260	197
261	169
262	177
263	168
264	149
265	151
266	162
267	179
268	163
269	158
270	175
271	128
272	156
273	157
274	150
275	160
276	176
277	161
278	149
279	145
280	159
281	126
282	162
283	133
284	153
285	162
286	178
287	127
288	165
289	182
290	141
291	138
292	160
293	145
294	130
295	139
296	149
297	180
298	143
299	164
300	149
301	112
302	139
303	140
304	135
305	131
306	160
307	141
308	135
309	132
310	114
311	136
312	144
313	147
314	143
315	121
316	138
317	123
318	138
319	127
320	134
321	135
322	130
323	130
324	138
325	136
326	126
327	123
328	120
329	105
330	126
331	108
332	104
333	133
334	142
335	120
336	108
337	140
338	100
339	107
340	111
341	122
342	99
343	111
344	123
345	118
346	117
347	111
348	127
349	108
350	112
351	114
352	101
353	119
354	100
355	121
356	106
357	129
358	124
359	132
360	108
361	170
362	148
363	134
364	175
365	165
366	178
367	186
368	227
369	215
370	257
371	246
372	274
373	292
374	309
375	330
376	356
377	357
378	412
379	438
380	435
381	464
382	469
383	483
384	497
385	547
386	564
387	565
388	569
389	557
390	578
391	657
392	634
393	679
394	631
395	706
396	713
397	619
398	671
399	640
400	644
401	663
402	659
403	594
404	565
405	584
406	560
407	503
408	451
409	492
410	471
411	455
412	461
413	400
414	389
415	363
416	310
417	320
418	313
419	292
420	243
421	283
422	212
423	238
424	221
425	215
426	187
427	207
428	173
429	176
430	182
431	181
432	176
433	161
434	172
435	146
436	131
437	154
438	157
439	155
440	129
441	116
442	154
443	125
444	121
445	135
446	147
447	132
448	157
449	133
450	125
451	135
452	128
453	148
454	129
455	130
456	135
457	159
458	143
459	139
460	133
461	127
462	132
463	136
464	146
465	114
466	125
467	124
468	107
469	125
470	115
471	123
472	127
473	122
474	106
475	106
476	126
477	138
478	121
479	108
480	111
481	99
482	110
483	109
484	117
485	110
486	113
487	94
488	100
489	104
490	89
491	112
492	83
493	107
494	101
495	95
496	103
497	83
498	101
499	88
500	97
501	78
502	113
503	101
504	98
505	91
506	107
507	115
508	124
509	120
510	145
511	132
512	136
513	164
514	170
515	175
516	191
517	202
518	226
519	253
520	254
521	281
522	312
523	340
524	372
525	372
526	403
527	397
528	437
529	525
530	502
531	549
532	569
533	585
534	568
535	649
536	642
537	685
538	742
539	714
540	720
541	840
542	847
543	829
544	792
545	832
546	825
547	861
548	854
549	875
550	888
551	806
552	824
553	846
554	830
555	781
556	768
557	739
558	744
559	763
560	660
561	668
562	691
563	654
564	646
565	589
566	557
567	527
568	485
569	457
570	447
571	407
572	375
573	354
574	303
575	324
576	290
577	244
578	266
579	203
580	192
581	176
582	154
583	151
584	159
585	135
586	90
587	101
588	85
589	98
590	84
591	54
592	51
593	53
594	51
595	46
596	39
597	38
598	37
599	30
600	23
601	20
602	33
603	25
604	15
605	13
606	25
607	22
608	26
609	18
610	16
611	11
612	11
613	14
614	11
615	12
616	14
617	11
618	12
619	9
620	7
621	6
622	10
623	14
624	12
625	9
626	11
627	11
628	14
629	8
630	7
631	6
632	7
633	4
634	7
635	9
636	5
637	7
638	11
639	11
640	8
641	6
642	4
643	3
644	10
645	4
646	10
647	6
648	4
649	9
650	9
651	1
652	4
653	4
654	4
655	3
656	4
657	6
658	6
659	6
660	8
661	4
662	4
663	2
664	3
665	3
666	3
667	7
668	5
669	3
670	3
671	2
672	2
673	1
674	2
675	2
676	2
677	2
678	3
679	1
680	9
681	1
682	3
683	4
684	0
685	1
686	5
687	2
688	1
689	0
690	5
691	1
692	0
693	1
694	3
695	0
696	1
697	2
698	1
699	1
700	1
701	0
702	1
703	1
704	1
705	2
706	2
707	0
708	1
709	0
710	0
711	2
712	0
713	0
714	1
715	2
716	0
717	1
718	1
719	0
720	0
721	0
722	2
723	0
724	0
725	1
726	0
727	0
728	0
729	0
730	0
731	0
732	1
733	0
734	0
735	1
736	0
737	1
738	0
739	0
740	0
741	0
742	0
743	0
744	0
745	0
746	0
747	0
748	0
749	0
750	1
751	0
752	0
753	0
754	1
755	0
756	0
757	0
758	0
759	0
760	0
761	0
762	1
763	0
764	0
765	0
766	0
767	0
768	0
769	0
770	0
771	2
772	0
773	0
774	0
775	0
776	3
777	2
778	0
779	0
780	0
781	0
782	1
783	0
784	0
785	0
786	0
787	1
788	1
789	1
790	1
791	0
792	0
793	0
794	0
795	1
796	0
797	0
798	0
799	0
800	1
801	0
802	1
803	0
804	0
805	0
806	0
807	0
808	0
809	0
810	0
811	1
812	0
813	0
814	0
815	0
816	0
817	0
818	0
819	0
820	0
821	0
822	1
823	0
824	0
825	0
826	0
827	1
828	0
829	0
830	0
831	0
832	0
833	0
834	1
835	1
836	0
837	0
838	1
839	0
840	0
841	0
842	0
843	0
844	0
845	0
846	0
847	0
848	0
849	0
850	0
851	0
852	0
853	0
854	0
855	0
856	0
857	0
858	0
859	0
860	0
861	0
862	0
863	1
864	0
865	0
866	0
867	0
868	0
869	0
870	0
871	1
872	0
873	0
874	0
875	0
876	0
877	0
878	0
879	0
880	0
881	0
882	0
883	0
884	0
885	0
886	0
887	0
888	0
889	0
890	0
891	0
892	0
893	0
894	0
895	0
896	0
897	0
898	0
899	0
900	0
901	0
902	0
903	0
904	0
905	0
906	0
907	0
908	0
909	0
910	1
911	0
912	0
913	0
914	0
915	0
916	0
917	0
918	0
919	0
920	0
921	0
922	0
923	0
924	0
925	0
926	0
927	0
928	0
929	0
930	0
931	1
932	0
933	0
934	0
935	0
936	0
937	0
938	0
939	0
940	0
941	0
942	0
943	0
944	0
945	0
946	0
947	0
948	0
949	0
950	0
951	0
952	0
953	0
954	0
955	1
956	0
957	0
958	0
959	0
960	0
961	1
962	0
963	0
964	0
965	1
966	0
967	0
968	0
969	0
970	0
971	0
972	1
973	0
974	0
975	1
976	0
977	0
978	0
979	0
980	0
981	0
982	0
983	0
984	0
985	1
986	0
987	0
988	0
989	0
990	1
991	0
992	0
993	0
994	0
995	1
996	0
997	0
998	1
999	0
1000	0
1001	0
1002	0
1003	0
1004	0
1005	0
1006	0
1007	0
1008	0
1009	0
1010	0
1011	0
1012	0
1013	0
1014	0
1015	0
1016	0
1017	0
1018	0
1019	0
1020	0
1021	0
1022	0
1023	0
