0	0
1	0
2	0
3	0
4	0
5	0
6	0
7	0
8	0
9	0
10	0
11	0
12	0
13	0
14	30
15	1726
16	1814
17	1650
18	1466
19	1217
20	1115
21	1020
22	1063
23	1004
24	1016
25	1010
26	1007
27	986
28	986
29	1021
30	1021
31	971
32	937
33	963
34	1020
35	937
36	987
37	979
38	936
39	991
40	983
41	957
42	959
43	917
44	967
45	974
46	990
47	973
48	1004
49	1033
50	997
51	960
52	966
53	991
54	949
55	976
56	1021
57	1001
58	1033
59	938
60	1008
61	1038
62	993
63	1001
64	1130
65	1088
66	1090
67	1060
68	1124
69	1183
70	1197
71	1125
72	1251
73	1164
74	1224
75	1227
76	1221
77	1158
78	1175
79	1247
80	1211
81	1183
82	1177
83	1178
84	1108
85	1179
86	1178
87	1162
88	1170
89	1127
90	1173
91	1130
92	1111
93	1174
94	1124
95	1139
96	1117
97	1075
98	1171
99	1116
100	1052
101	1121
102	1092
103	1136
104	1085
105	1091
106	1073
107	1029
108	1024
109	1075
110	1061
111	1019
112	988
113	1080
114	1059
115	1018
116	1031
117	998
118	1025
119	1077
120	1033
121	978
122	1014
123	965
124	973
125	1025
126	1000
127	963
128	1036
129	984
130	974
131	974
132	956
133	1004
134	991
135	984
136	960
137	1022
138	987
139	923
140	945
141	932
142	889
143	1042
144	1009
145	938
146	931
147	999
148	922
149	999
150	968
151	924
152	997
153	925
154	936
155	946
156	934
157	962
158	954
159	939
160	967
161	911
162	947
163	892
164	921
165	928
166	860
167	877
168	937
169	954
170	946
171	907
172	916
173	975
174	968
175	878
176	912
177	903
178	894
179	970
180	848
181	904
182	935
183	890
184	913
185	910
186	960
187	892
188	889
189	944
190	942
191	868
192	907
193	913
194	913
195	878
196	914
197	976
198	871
199	907
200	931
201	915
202	886
203	901
204	900
205	903
206	864
207	931
208	890
209	867
210	906
211	911
212	893
213	887
214	861
215	928
216	837
217	872
218	910
219	852
220	872
221	953
222	857
223	869
224	851
225	896
226	845
227	878
228	811
229	913
230	851
231	872
232	881
233	870
234	863
235	857
236	828
237	917
238	885
239	870
240	843
241	891
242	876
243	857
244	918
245	937
246	899
247	901
248	926
249	959
250	926
251	855
252	934
253	904
254	837
255	868
256	850
257	919
258	857
259	873
260	928
261	936
262	862
263	914
264	846
265	830
266	840
267	883
268	838
269	870
270	810
271	824
272	874
273	843
274	878
275	821
276	836
277	811
278	791
279	816
280	803
281	810
282	773
283	785
284	759
285	742
286	773
287	769
288	799
289	726
290	765
291	765
292	784
293	724
294	747
295	715
296	719
297	693
298	687
299	712
300	697
301	681
302	658
303	659
304	663
305	650
306	649
307	636
308	596
309	585
310	650
311	596
312	575
313	550
314	550
315	556
316	567
317	607
318	566
319	585
320	585
321	562
322	646
323	668
324	651
325	708
326	782
327	734
328	866
329	929
330	941
331	1059
332	1093
333	1180
334	1274
335	1435
336	1565
337	1733
338	1825
339	2036
340	2163
341	2452
342	2616
343	2813
344	3084
345	3326
346	3524
347	3786
348	3881
349	4241
350	4485
351	4850
352	5103
353	5261
354	5419
355	5719
356	5711
357	5958
358	6140
359	6227
360	6316
361	6366
362	6309
363	6278
364	6301
365	6151
366	6158
367	6134
368	5918
369	5713
370	5563
371	5404
372	5229
373	4950
374	4777
375	4611
376	4410
377	4148
378	4118
379	3885
380	3679
381	3474
382	3426
383	3299
384	3190
385	3084
386	3140
387	3139
388	3131
389	3216
390	3205
391	3319
392	3327
393	3353
394	3545
395	3702
396	3843
397	3839
398	4005
399	4108
400	4306
401	4476
402	4579
403	4804
404	4877
405	4876
406	5030
407	5052
408	5113
409	5327
410	5249
411	5325
412	5203
413	5239
414	5217
415	5049
416	5038
417	4805
418	4850
419	4620
420	4307
421	4241
422	4079
423	3941
424	3794
425	3542
426	3368
427	3053
428	2886
429	2677
430	2498
431	2430
432	2168
433	1985
434	1846
435	1689
436	1584
437	1469
438	1406
439	1222
440	1167
441	1034
442	942
443	934
444	798
445	798
446	660
447	619
448	552
449	522
450	468
451	464
452	440
453	422
454	398
455	357
456	324
457	360
458	350
459	335
460	324
461	348
462	304
463	308
464	336
465	301
466	321
467	297
468	311
469	289
470	337
471	278
472	297
473	324
474	299
475	331
476	306
477	286
478	267
479	277
480	239
481	284
482	277
483	292
484	301
485	270
486	291
487	261
488	304
489	257
490	280
491	299
492	284
493	316
494	251
495	270
496	272
497	271
498	262
499	258
500	276
501	302
502	263
503	271
504	254
505	272
506	259
507	268
508	300
509	254
510	264
511	289
512	264
513	268
514	261
515	289
516	288
517	258
518	263
519	249
520	273
521	265
522	284
523	262
524	233
525	236
526	257
527	253
528	263
529	259
530	242
531	278
532	244
533	236
534	264
535	291
536	253
537	224
538	258
539	230
540	259
541	248
542	276
543	250
544	270
545	213
546	242
547	245
548	263
549	235
550	268
551	234
552	233
553	234
554	262
555	236
556	218
557	242
558	221
559	207
560	224
561	241
562	195
563	232
564	196
565	235
566	232
567	238
568	230
569	208
570	248
571	237
572	242
573	207
574	225
575	219
576	233
577	207
578	228
579	233
580	209
581	238
582	221
583	252
584	223
585	219
586	232
587	227
588	215
589	203
590	233
591	213
592	216
593	217
594	235
595	231
596	220
597	230
598	208
599	201
600	206
601	219
602	227
603	227
604	228
605	222
606	203
607	228
608	217
609	202
610	219
611	248
612	201
613	206
614	233
615	196
616	214
617	210
618	196
619	209
620	238
621	233
622	232
623	218
624	219
625	204
626	202
627	211
628	223
629	203
630	219
631	178
632	234
633	204
634	210
635	201
636	186
637	202
638	174
639	198
640	179
641	214
642	211
643	200
644	194
645	189
646	194
647	205
648	194
649	195
650	181
651	200
652	186
653	175
654	174
655	182
656	194
657	185
658	172
659	180
660	187
661	191
662	188
663	202
664	167
665	181
666	176
667	172
668	164
669	198
670	195
671	184
672	190
673	176
674	170
675	159
676	161
677	169
678	161
679	179
680	168
681	167
682	146
683	157
684	185
685	173
686	174
687	146
688	169
689	154
690	176
691	149
692	155
693	152
694	125
695	133
696	144
697	139
698	159
699	114
700	131
701	117
702	117
703	123
704	116
705	143
706	107
707	113
708	130
709	121
710	119
711	121
712	143
713	129
714	124
715	145
716	124
717	161
718	149
719	137
720	147
721	165
722	163
723	148
724	180
725	169
726	200
727	223
728	217
729	221
730	267
731	297
732	288
733	320
734	304
735	336
736	370
737	372
738	409
739	406
740	426
741	513
742	505
743	580
744	531
745	576
746	610
747	612
748	637
749	677
750	679
751	705
752	746
753	780
754	797
755	797
756	856
757	828
758	820
759	899
760	915
761	915
762	944
763	949
764	916
765	951
766	927
767	861
768	969
769	919
770	947
771	919
772	935
773	910
774	922
775	889
776	898
777	865
778	814
779	804
780	820
781	733
782	689
783	657
784	669
785	600
786	596
787	553
788	567
789	581
790	517
791	456
792	440
793	416
794	402
795	417
796	376
797	355
798	280
799	289
800	283
801	266
802	250
803	228
804	192
805	201
806	174
807	138
808	139
809	96
810	125
811	98
812	118
813	83
814	76
815	70
816	69
817	56
818	61
819	51
820	48
821	42
822	40
823	33
824	29
825	34
826	26
827	21
828	20
829	17
830	14
831	10
832	12
833	9
834	14
835	8
836	13
837	4
838	6
839	8
840	4
841	4
842	3
843	2
844	5
845	2
846	8
847	2
848	0
849	7
850	3
851	4
852	1
853	3
854	2
855	2
856	5
857	0
858	2
859	4
860	3
861	3
862	6
863	2
864	1
865	6
866	0
867	3
868	8
869	3
870	2
871	2
872	0
873	1
874	6
875	3
876	6
877	2
878	3
879	1
880	4
881	0
882	2
883	3
884	3
885	2
886	1
887	2
888	4
889	2
890	1
891	2
892	1
893	2
894	0
895	1
896	1
897	2
898	2
899	2
900	2
901	4
902	3
903	2
904	0
905	3
906	1
907	1
908	0
909	3
910	3
911	4
912	3
913	4
914	3
915	1
916	1
917	4
918	3
919	0
920	4
921	3
922	1
923	4
924	2
925	2
926	2
927	3
928	2
929	1
930	5
931	2
932	1
933	3
934	3
935	0
936	2
937	2
938	5
939	2
940	4
941	1
942	4
943	1
944	1
945	3
946	3
947	2
948	1
949	1
950	5
951	2
952	1
953	2
954	1
955	0
956	1
957	1
958	4
959	2
960	1
961	2
962	2
963	0
964	2
965	1
966	2
967	4
968	2
969	2
970	3
971	3
972	3
973	3
974	2
975	1
976	0
977	1
978	0
979	0
980	0
981	1
982	2
983	1
984	1
985	2
986	2
987	4
988	1
989	3
990	3
991	1
992	0
993	1
994	3
995	2
996	2
997	2
998	1
999	4
1000	2
1001	3
1002	2
1003	0
1004	1
1005	2
1006	1
1007	0
1008	0
1009	0
1010	0
1011	0
1012	0
1013	0
1014	0
1015	0
1016	0
1017	0
1018	0
1019	0
1020	0
1021	0
1022	0
1023	0
