0	0
1	0
2	0
3	0
4	0
5	0
6	0
7	0
8	0
9	0
10	0
11	0
12	0
13	0
14	19
15	1658
16	1862
17	1661
18	1378
19	1257
20	1055
21	1090
22	1112
23	998
24	1020
25	1020
26	1028
27	987
28	1050
29	1010
30	1010
31	1029
32	994
33	936
34	958
35	997
36	998
37	1009
38	971
39	1007
40	995
41	1001
42	1004
43	1050
44	926
45	940
46	995
47	1030
48	944
49	1015
50	996
51	1015
52	1000
53	903
54	958
55	938
56	981
57	1024
58	915
59	982
60	965
61	1036
62	1015
63	1045
64	1109
65	1054
66	1110
67	1109
68	1120
69	1168
70	1147
71	1209
72	1270
73	1228
74	1248
75	1201
76	1210
77	1214
78	1154
79	1186
80	1174
81	1264
82	1190
83	1210
84	1210
85	1166
86	1161
87	1180
88	1162
89	1165
90	1123
91	1133
92	1160
93	1080
94	1154
95	1125
96	1150
97	1146
98	1104
99	1109
100	1102
101	1069
102	1113
103	1042
104	1060
105	1122
106	1055
107	1054
108	1106
109	1026
110	1025
111	1123
112	1019
113	1083
114	1044
115	991
116	1075
117	1091
118	984
119	980
120	1039
121	995
122	1019
123	1006
124	1035
125	982
126	996
127	996
128	1045
129	975
130	1008
131	1045
132	1031
133	946
134	953
135	993
136	991
137	954
138	1009
139	997
140	963
141	973
142	954
143	984
144	956
145	936
146	1000
147	997
148	932
149	996
150	944
151	975
152	961
153	947
154	962
155	978
156	980
157	896
158	994
159	940
160	915
161	978
162	880
163	918
164	984
165	960
166	876
167	920
168	952
169	900
170	890
171	932
172	949
173	922
174	908
175	959
176	975
177	969
178	912
179	906
180	890
181	907
182	961
183	925
184	924
185	889
186	930
187	953
188	875
189	910
190	943
191	920
192	906
193	864
194	918
195	922
196	926
197	953
198	850
199	907
200	893
201	864
202	915
203	903
204	1016
205	916
206	912
207	922
208	885
209	920
210	828
211	908
212	855
213	904
214	895
215	894
216	879
217	908
218	919
219	945
220	894
221	886
222	870
223	891
224	887
225	924
226	876
227	859
228	830
229	879
230	893
231	821
232	884
233	887
234	869
235	880
236	893
237	862
238	879
239	898
240	922
241	861
242	912
243	954
244	911
245	933
246	835
247	898
248	894
249	948
250	838
251	930
252	857
253	885
254	921
255	920
256	906
257	876
258	894
259	907
260	941
261	839
262	821
263	883
264	809
265	860
266	851
267	866
268	875
269	885
270	813
271	854
272	832
273	848
274	826
275	809
276	796
277	833
278	764
279	804
280	792
281	811
282	819
283	777
284	796
285	766
286	846
287	773
288	792
289	705
290	737
291	793
292	768
293	745
294	771
295	719
296	663
297	677
298	722
299	667
300	700
301	645
302	604
303	641
304	668
305	625
306	643
307	617
308	570
309	590
310	603
311	597
312	579
313	587
314	648
315	620
316	600
317	566
318	629
319	604
320	597
321	638
322	684
323	737
324	732
325	782
326	807
327	877
328	933
329	1041
330	1147
331	1224
332	1295
333	1442
334	1533
335	1764
336	1858
337	2009
338	2276
339	2387
340	2715
341	2920
342	3188
343	3449
344	3562
345	3900
346	4078
347	4373
348	4678
349	4796
350	5148
351	5309
352	5623
353	5748
354	5801
355	5981
356	6285
357	6202
358	6197
359	6297
360	6267
361	6294
362	6272
363	6191
364	6077
365	6074
366	5803
367	5740
368	5379
369	5223
370	5179
371	4946
372	4842
373	4542
374	4424
375	4169
376	3950
377	3774
378	3690
379	3537
380	3459
381	3373
382	3285
383	3183
384	3185
385	3206
386	3125
387	3156
388	3231
389	3257
390	3359
391	3580
392	3682
393	3766
394	3935
395	4017
396	4117
397	4350
398	4439
399	4721
400	4703
401	4877
402	4990
403	5122
404	5203
405	5179
406	5194
407	5358
408	5267
409	5213
410	5130
411	5092
412	5228
413	5083
414	4863
415	4695
416	4664
417	4641
418	4332
419	4211
420	3997
421	3848
422	3645
423	3488
424	3293
425	3006
426	2882
427	2606
428	2478
429	2302
430	2138
431	1943
432	1757
433	1684
434	1517
435	1372
436	1218
437	1175
438	1069
439	952
440	931
441	844
442	736
443	682
444	659
445	560
446	529
447	541
448	489
449	460
450	427
451	390
452	396
453	369
454	364
455	357
456	336
457	334
458	345
459	316
460	337
461	302
462	294
463	324
464	272
465	281
466	329
467	303
468	314
469	299
470	270
471	280
472	304
473	305
474	316
475	306
476	292
477	307
478	294
479	278
480	264
481	283
482	288
483	291
484	302
485	292
486	288
487	297
488	268
489	278
490	256
491	300
492	284
493	252
494	260
495	280
496	236
497	244
498	275
499	279
500	317
501	248
502	272
503	272
504	254
505	271
506	274
507	254
508	252
509	275
510	242
511	242
512	285
513	271
514	275
515	258
516	282
517	250
518	272
519	250
520	242
521	268
522	253
523	254
524	218
525	266
526	226
527	259
528	254
529	254
530	257
531	256
532	236
533	227
534	246
535	237
536	267
537	241
538	228
539	263
540	245
541	236
542	244
543	245
544	224
545	254
546	255
547	236
548	229
549	220
550	245
551	244
552	225
553	207
554	252
555	254
556	247
557	230
558	218
559	236
560	247
561	221
562	241
563	224
564	201
565	234
566	256
567	211
568	249
569	218
570	218
571	271
572	208
573	203
574	217
575	232
576	239
577	253
578	229
579	254
580	201
581	199
582	229
583	222
584	230
585	234
586	218
587	233
588	215
589	207
590	209
591	209
592	249
593	229
594	225
595	239
596	214
597	243
598	230
599	233
600	204
601	240
602	228
603	229
604	223
605	248
606	243
607	230
608	258
609	200
610	211
611	222
612	232
613	209
614	214
615	218
616	177
617	229
618	207
619	224
620	241
621	190
622	212
623	198
624	222
625	211
626	206
627	220
628	204
629	184
630	203
631	223
632	188
633	191
634	242
635	188
636	196
637	217
638	235
639	215
640	182
641	196
642	177
643	185
644	197
645	197
646	222
647	189
648	195
649	183
650	200
651	208
652	208
653	201
654	189
655	194
656	168
657	162
658	182
659	173
660	181
661	175
662	166
663	176
664	174
665	192
666	158
667	176
668	160
669	178
670	182
671	159
672	182
673	176
674	190
675	171
676	173
677	170
678	147
679	166
680	178
681	158
682	162
683	154
684	166
685	167
686	142
687	160
688	150
689	149
690	159
691	129
692	158
693	156
694	126
695	143
696	135
697	122
698	114
699	142
700	141
701	129
702	127
703	116
704	125
705	137
706	128
707	134
708	131
709	138
710	123
711	127
712	147
713	137
714	147
715	150
716	153
717	137
718	179
719	189
720	182
721	211
722	210
723	211
724	207
725	231
726	272
727	296
728	296
729	335
730	331
731	374
732	382
733	442
734	440
735	447
736	427
737	487
738	542
739	588
740	593
741	639
742	654
743	662
744	690
745	710
746	781
747	767
748	774
749	789
750	831
751	867
752	834
753	855
754	928
755	976
756	923
757	964
758	964
759	934
760	913
761	940
762	911
763	931
764	953
765	913
766	914
767	899
768	937
769	895
770	863
771	867
772	875
773	811
774	811
775	782
776	760
777	762
778	701
779	663
780	620
781	629
782	581
783	598
784	556
785	502
786	520
787	496
788	466
789	425
790	364
791	371
792	372
793	300
794	321
795	272
796	220
797	223
798	211
799	187
800	169
801	180
802	134
803	150
804	131
805	119
806	89
807	103
808	100
809	73
810	74
811	71
812	58
813	59
814	51
815	38
816	41
817	25
818	25
819	27
820	28
821	17
822	20
823	11
824	13
825	10
826	13
827	9
828	7
829	8
830	8
831	6
832	7
833	4
834	9
835	2
836	4
837	5
838	3
839	1
840	4
841	3
842	5
843	3
844	0
845	5
846	5
847	1
848	4
849	6
850	3
851	1
852	7
853	1
854	3
855	4
856	3
857	2
858	6
859	6
860	4
861	1
862	2
863	4
864	5
865	1
866	6
867	0
868	3
869	1
870	2
871	2
872	7
873	2
874	3
875	3
876	3
877	4
878	0
879	1
880	1
881	3
882	4
883	1
884	1
885	3
886	2
887	1
888	0
889	3
890	3
891	1
892	4
893	0
894	6
895	1
896	2
897	3
898	2
899	4
900	2
901	2
902	1
903	1
904	3
905	3
906	3
907	2
908	5
909	3
910	3
911	2
912	5
913	2
914	1
915	2
916	3
917	1
918	3
919	5
920	2
921	0
922	4
923	0
924	4
925	1
926	1
927	4
928	3
929	0
930	1
931	2
932	0
933	3
934	0
935	0
936	3
937	3
938	2
939	1
940	4
941	3
942	1
943	1
944	2
945	0
946	2
947	2
948	1
949	2
950	2
951	2
952	0
953	2
954	0
955	2
956	1
957	0
958	2
959	0
960	1
961	0
962	1
963	1
964	2
965	4
966	2
967	1
968	1
969	2
970	1
971	0
972	2
973	2
974	1
975	4
976	2
977	3
978	1
979	2
980	1
981	0
982	1
983	5
984	0
985	0
986	1
987	0
988	3
989	4
990	3
991	1
992	1
993	2
994	1
995	0
996	5
997	1
998	1
999	1
1000	1
1001	1
1002	2
1003	5
1004	2
1005	3
1006	1
1007	1
1008	0
1009	0
1010	0
1011	0
1012	0
1013	0
1014	0
1015	0
1016	0
1017	0
1018	0
1019	0
1020	0
1021	0
1022	0
1023	0
