0	0
1	0
2	0
3	0
4	0
5	0
6	0
7	0
8	0
9	0
10	0
11	0
12	0
13	0
14	12
15	846
16	871
17	709
18	574
19	453
20	402
21	400
22	343
23	368
24	327
25	346
26	341
27	315
28	335
29	319
30	322
31	356
32	339
33	347
34	346
35	305
36	350
37	341
38	310
39	334
40	349
41	345
42	311
43	331
44	313
45	301
46	308
47	253
48	285
49	312
50	328
51	308
52	327
53	316
54	321
55	338
56	316
57	325
58	330
59	321
60	359
61	393
62	366
63	333
64	374
65	358
66	379
67	317
68	332
69	375
70	351
71	350
72	386
73	344
74	336
75	335
76	333
77	345
78	333
79	350
80	340
81	351
82	335
83	308
84	362
85	327
86	305
87	327
88	329
89	314
90	332
91	342
92	327
93	334
94	328
95	328
96	356
97	305
98	330
99	338
100	360
101	354
102	337
103	291
104	339
105	316
106	293
107	307
108	318
109	307
110	294
111	309
112	294
113	286
114	261
115	234
116	235
117	257
118	253
119	230
120	196
121	207
122	233
123	223
124	230
125	214
126	256
127	255
128	251
129	253
130	308
131	305
132	343
133	347
134	331
135	396
136	433
137	481
138	551
139	651
140	687
141	824
142	907
143	1102
144	1279
145	1519
146	1752
147	1976
148	2337
149	2786
150	3223
151	3405
152	4003
153	4572
154	4974
155	5421
156	5774
157	6031
158	6471
159	6838
160	6869
161	7006
162	7068
163	7068
164	6797
165	6721
166	6211
167	6111
168	5475
169	5148
170	4705
171	4305
172	3856
173	3379
174	3069
175	2569
176	2245
177	1942
178	1706
179	1505
180	1205
181	1006
182	819
183	713
184	622
185	539
186	431
187	374
188	346
189	299
190	256
191	224
192	230
193	193
194	205
195	198
196	193
197	194
198	188
199	211
200	205
201	172
202	202
203	193
204	218
205	202
206	200
207	169
208	210
209	183
210	198
211	224
212	218
213	196
214	199
215	210
216	201
217	196
218	210
219	219
220	211
221	200
222	208
223	207
224	212
225	198
226	209
227	210
228	195
229	240
230	169
231	194
232	217
233	207
234	229
235	220
236	205
237	220
238	237
239	195
240	222
241	216
242	182
243	198
244	202
245	197
246	194
247	188
248	194
249	193
250	196
251	187
252	189
253	178
254	190
255	184
256	189
257	183
258	181
259	165
260	158
261	143
262	150
263	182
264	161
265	169
266	160
267	179
268	151
269	167
270	154
271	157
272	174
273	147
274	169
275	152
276	162
277	155
278	146
279	149
280	169
281	124
282	150
283	151
284	167
285	144
286	140
287	138
288	140
289	154
290	160
291	164
292	151
293	128
294	136
295	183
296	141
297	151
298	155
299	129
300	119
301	139
302	145
303	147
304	126
305	132
306	121
307	143
308	134
309	146
310	142
311	123
312	136
313	123
314	141
315	114
316	135
317	142
318	115
319	136
320	123
321	140
322	123
323	132
324	139
325	134
326	119
327	142
328	115
329	128
330	126
331	132
332	120
333	139
334	131
335	137
336	132
337	127
338	129
339	123
340	104
341	104
342	93
343	111
344	129
345	126
346	104
347	110
348	106
349	115
350	124
351	123
352	118
353	128
354	112
355	141
356	132
357	120
358	118
359	139
360	147
361	135
362	146
363	159
364	181
365	153
366	166
367	215
368	225
369	210
370	243
371	240
372	236
373	276
374	297
375	294
376	351
377	385
378	406
379	419
380	438
381	472
382	449
383	500
384	504
385	508
386	562
387	580
388	553
389	585
390	647
391	618
392	701
393	634
394	658
395	681
396	664
397	628
398	661
399	644
400	647
401	670
402	608
403	574
404	580
405	590
406	524
407	527
408	541
409	486
410	496
411	442
412	423
413	400
414	383
415	386
416	354
417	338
418	277
419	291
420	248
421	271
422	243
423	243
424	225
425	218
426	191
427	183
428	161
429	173
430	184
431	174
432	164
433	138
434	167
435	133
436	144
437	137
438	159
439	138
440	158
441	145
442	146
443	134
444	152
445	143
446	123
447	147
448	140
449	144
450	142
451	114
452	147
453	150
454	134
455	127
456	136
457	121
458	125
459	140
460	127
461	126
462	124
463	145
464	116
465	121
466	139
467	124
468	128
469	125
470	138
471	111
472	108
473	118
474	123
475	108
476	96
477	131
478	104
479	136
480	123
481	118
482	114
483	92
484	118
485	90
486	104
487	100
488	99
489	120
490	104
491	104
492	108
493	89
494	101
495	72
496	96
497	112
498	104
499	74
500	90
501	111
502	115
503	87
504	84
505	102
506	113
507	102
508	133
509	118
510	133
511	142
512	159
513	170
514	187
515	189
516	186
517	205
518	225
519	249
520	228
521	256
522	292
523	316
524	344
525	338
526	377
527	438
528	458
529	478
530	483
531	524
532	545
533	590
534	613
535	582
536	642
537	648
538	678
539	685
540	765
541	741
542	755
543	841
544	807
545	829
546	825
547	831
548	859
549	855
550	886
551	905
552	801
553	806
554	803
555	849
556	813
557	772
558	728
559	687
560	725
561	683
562	648
563	632
564	624
565	607
566	512
567	476
568	459
569	454
570	434
571	388
572	367
573	370
574	321
575	321
576	271
577	263
578	237
579	198
580	174
581	189
582	164
583	125
584	130
585	139
586	113
587	118
588	103
589	91
590	89
591	70
592	63
593	50
594	53
595	52
596	42
597	39
598	35
599	36
600	21
601	22
602	22
603	15
604	23
605	18
606	16
607	19
608	26
609	24
610	19
611	18
612	15
613	11
614	8
615	7
616	15
617	9
618	17
619	9
620	13
621	9
622	15
623	13
624	11
625	12
626	12
627	10
628	8
629	7
630	9
631	6
632	9
633	13
634	14
635	8
636	4
637	6
638	12
639	9
640	6
641	9
642	3
643	5
644	9
645	7
646	5
647	7
648	6
649	10
650	6
651	7
652	9
653	1
654	3
655	5
656	4
657	5
658	0
659	4
660	6
661	5
662	2
663	1
664	1
665	0
666	1
667	1
668	2
669	2
670	0
671	2
672	0
673	2
674	2
675	2
676	3
677	0
678	5
679	3
680	5
681	1
682	4
683	4
684	0
685	1
686	2
687	1
688	1
689	1
690	1
691	0
692	1
693	1
694	1
695	4
696	0
697	3
698	2
699	3
700	2
701	2
702	6
703	0
704	2
705	1
706	1
707	1
708	1
709	3
710	0
711	2
712	1
713	1
714	0
715	1
716	2
717	1
718	1
719	0
720	0
721	1
722	0
723	1
724	0
725	0
726	0
727	1
728	1
729	0
730	0
731	0
732	0
733	1
734	0
735	0
736	0
737	1
738	1
739	0
740	2
741	0
742	0
743	1
744	0
745	0
746	0
747	1
748	2
749	0
750	0
751	1
752	0
753	0
754	1
755	0
756	0
757	0
758	0
759	0
760	1
761	0
762	0
763	0
764	0
765	0
766	0
767	1
768	0
769	0
770	0
771	0
772	0
773	1
774	0
775	0
776	0
777	0
778	0
779	0
780	0
781	0
782	0
783	1
784	0
785	1
786	0
787	1
788	0
789	1
790	0
791	1
792	0
793	0
794	1
795	0
796	1
797	0
798	0
799	1
800	1
801	0
802	0
803	0
804	1
805	0
806	0
807	1
808	1
809	0
810	0
811	0
812	1
813	0
814	0
815	0
816	0
817	0
818	1
819	0
820	0
821	0
822	0
823	0
824	0
825	0
826	0
827	0
828	0
829	1
830	0
831	0
832	0
833	0
834	0
835	0
836	0
837	0
838	0
839	0
840	0
841	0
842	1
843	0
844	0
845	0
846	0
847	0
848	1
849	0
850	0
851	0
852	0
853	0
854	0
855	0
856	0
857	1
858	0
859	0
860	0
861	0
862	0
863	0
864	0
865	0
866	1
867	0
868	0
869	0
870	0
871	1
872	0
873	0
874	0
875	0
876	0
877	0
878	0
879	0
880	0
881	0
882	0
883	0
884	0
885	0
886	0
887	0
888	0
889	0
890	1
891	0
892	0
893	0
894	0
895	0
896	0
897	0
898	0
899	0
900	1
901	1
902	0
903	0
904	0
905	0
906	0
907	0
908	0
909	1
910	0
911	0
912	0
913	0
914	0
915	0
916	0
917	0
918	0
919	0
920	0
921	0
922	0
923	1
924	0
925	1
926	0
927	0
928	1
929	0
930	0
931	0
932	0
933	0
934	0
935	0
936	0
937	0
938	0
939	1
940	0
941	1
942	1
943	0
944	0
945	0
946	0
947	0
948	0
949	0
950	1
951	0
952	0
953	0
954	0
955	0
956	0
957	0
958	0
959	0
960	0
961	0
962	0
963	0
964	0
965	0
966	0
967	0
968	1
969	0
970	1
971	0
972	0
973	0
974	0
975	0
976	0
977	0
978	1
979	0
980	0
981	0
982	0
983	0
984	0
985	0
986	1
987	0
988	0
989	0
990	0
991	0
992	0
993	0
994	0
995	0
996	2
997	0
998	0
999	0
1000	0
1001	0
1002	0
1003	0
1004	0
1005	0
1006	0
1007	0
1008	0
1009	0
1010	0
1011	0
1012	0
1013	0
1014	0
1015	0
1016	0
1017	0
1018	0
1019	0
1020	0
1021	0
1022	0
1023	0
