0	0
1	0
2	0
3	0
4	0
5	0
6	0
7	0
8	0
9	0
10	0
11	0
12	0
13	0
14	7
15	772
16	816
17	670
18	576
19	491
20	401
21	376
22	350
23	346
24	376
25	349
26	345
27	342
28	319
29	335
30	360
31	328
32	332
33	344
34	325
35	343
36	379
37	347
38	327
39	326
40	327
41	297
42	313
43	329
44	308
45	287
46	289
47	297
48	312
49	313
50	308
51	290
52	290
53	287
54	346
55	330
56	315
57	341
58	354
59	345
60	315
61	336
62	394
63	330
64	367
65	385
66	396
67	351
68	357
69	367
70	346
71	329
72	360
73	364
74	365
75	365
76	325
77	327
78	343
79	319
80	315
81	321
82	336
83	306
84	353
85	349
86	342
87	358
88	339
89	344
90	325
91	338
92	326
93	343
94	328
95	341
96	340
97	359
98	369
99	357
100	375
101	301
102	312
103	315
104	325
105	338
106	283
107	293
108	296
109	306
110	284
111	316
112	260
113	246
114	242
115	223
116	225
117	241
118	227
119	223
120	206
121	227
122	202
123	230
124	222
125	236
126	265
127	245
128	280
129	285
130	310
131	314
132	381
133	398
134	439
135	472
136	570
137	593
138	671
139	753
140	928
141	1053
142	1233
143	1407
144	1676
145	1995
146	2380
147	2661
148	3042
149	3480
150	3902
151	4362
152	4932
153	5325
154	5847
155	6094
156	6480
157	6616
158	6916
159	7110
160	6973
161	7051
162	6893
163	6512
164	6384
165	6109
166	5505
167	5215
168	4746
169	4372
170	3986
171	3503
172	3070
173	2722
174	2264
175	1941
176	1730
177	1408
178	1186
179	980
180	891
181	700
182	611
183	500
184	416
185	332
186	316
187	288
188	264
189	251
190	226
191	238
192	192
193	201
194	200
195	172
196	208
197	210
198	188
199	209
200	211
201	205
202	209
203	191
204	188
205	234
206	218
207	203
208	217
209	233
210	209
211	228
212	208
213	208
214	227
215	188
216	202
217	207
218	209
219	194
220	221
221	204
222	221
223	213
224	214
225	227
226	240
227	194
228	211
229	223
230	219
231	210
232	207
233	185
234	205
235	200
236	213
237	194
238	190
239	194
240	185
241	196
242	246
243	192
244	200
245	184
246	181
247	179
248	171
249	165
250	177
251	175
252	143
253	184
254	193
255	157
256	184
257	168
258	184
259	186
260	187
261	172
262	175
263	169
264	150
265	161
266	145
267	188
268	170
269	159
270	153
271	151
272	150
273	159
274	157
275	153
276	137
277	163
278	159
279	163
280	170
281	137
282	145
283	141
284	167
285	141
286	148
287	158
288	140
289	150
290	137
291	141
292	132
293	157
294	144
295	115
296	132
297	153
298	122
299	127
300	135
301	123
302	151
303	136
304	124
305	140
306	131
307	156
308	131
309	131
310	136
311	146
312	130
313	147
314	119
315	132
316	140
317	121
318	142
319	122
320	132
321	132
322	130
323	117
324	116
325	125
326	118
327	139
328	148
329	128
330	118
331	124
332	118
333	111
334	101
335	105
336	121
337	123
338	112
339	105
340	102
341	116
342	100
343	116
344	105
345	108
346	106
347	125
348	136
349	105
350	116
351	104
352	128
353	125
354	136
355	131
356	135
357	168
358	138
359	138
360	161
361	175
362	207
363	197
364	214
365	214
366	230
367	238
368	308
369	280
370	319
371	327
372	355
373	385
374	393
375	439
376	430
377	485
378	490
379	497
380	509
381	576
382	561
383	575
384	608
385	688
386	686
387	635
388	677
389	638
390	684
391	681
392	646
393	680
394	626
395	650
396	602
397	650
398	581
399	575
400	557
401	555
402	506
403	536
404	480
405	468
406	464
407	466
408	426
409	382
410	341
411	336
412	357
413	320
414	319
415	295
416	292
417	265
418	227
419	236
420	218
421	189
422	195
423	188
424	185
425	173
426	190
427	170
428	167
429	145
430	161
431	146
432	174
433	115
434	144
435	141
436	124
437	154
438	118
439	141
440	131
441	150
442	157
443	131
444	130
445	129
446	135
447	162
448	144
449	135
450	154
451	131
452	140
453	137
454	146
455	139
456	129
457	126
458	119
459	118
460	139
461	120
462	119
463	136
464	136
465	129
466	131
467	118
468	118
469	113
470	127
471	103
472	115
473	128
474	90
475	106
476	115
477	118
478	125
479	91
480	96
481	111
482	112
483	101
484	110
485	117
486	101
487	106
488	108
489	120
490	103
491	104
492	103
493	92
494	91
495	86
496	122
497	100
498	98
499	109
500	113
501	107
502	112
503	121
504	138
505	142
506	154
507	185
508	174
509	206
510	173
511	216
512	235
513	256
514	269
515	302
516	294
517	323
518	357
519	352
520	410
521	436
522	475
523	489
524	490
525	534
526	547
527	646
528	628
529	605
530	713
531	708
532	743
533	774
534	742
535	778
536	801
537	795
538	856
539	828
540	868
541	906
542	870
543	850
544	856
545	859
546	869
547	843
548	815
549	786
550	726
551	745
552	730
553	742
554	711
555	695
556	671
557	620
558	605
559	551
560	543
561	541
562	458
563	429
564	417
565	403
566	381
567	314
568	289
569	289
570	275
571	241
572	213
573	204
574	179
575	153
576	146
577	131
578	116
579	98
580	120
581	99
582	88
583	77
584	66
585	69
586	44
587	41
588	37
589	55
590	36
591	45
592	32
593	27
594	23
595	23
596	23
597	17
598	15
599	19
600	13
601	18
602	21
603	15
604	19
605	10
606	14
607	10
608	17
609	12
610	11
611	17
612	10
613	16
614	14
615	13
616	10
617	7
618	9
619	6
620	18
621	12
622	12
623	9
624	12
625	6
626	5
627	8
628	10
629	7
630	10
631	3
632	8
633	5
634	11
635	8
636	5
637	10
638	6
639	13
640	6
641	3
642	1
643	8
644	3
645	5
646	4
647	7
648	6
649	4
650	3
651	4
652	8
653	4
654	6
655	5
656	6
657	4
658	2
659	1
660	4
661	3
662	3
663	2
664	7
665	4
666	0
667	3
668	1
669	4
670	2
671	1
672	2
673	1
674	3
675	0
676	1
677	2
678	1
679	2
680	3
681	2
682	1
683	2
684	1
685	2
686	3
687	1
688	1
689	4
690	4
691	3
692	1
693	2
694	0
695	1
696	1
697	0
698	1
699	3
700	1
701	0
702	0
703	1
704	0
705	2
706	0
707	0
708	1
709	1
710	0
711	0
712	1
713	0
714	1
715	0
716	2
717	2
718	0
719	0
720	2
721	0
722	0
723	0
724	1
725	0
726	0
727	2
728	0
729	0
730	0
731	1
732	1
733	2
734	0
735	0
736	0
737	0
738	0
739	0
740	0
741	0
742	0
743	0
744	0
745	0
746	0
747	0
748	0
749	1
750	1
751	1
752	1
753	0
754	0
755	0
756	1
757	1
758	0
759	0
760	1
761	0
762	0
763	1
764	0
765	0
766	0
767	0
768	0
769	1
770	0
771	0
772	0
773	0
774	0
775	1
776	0
777	1
778	0
779	1
780	0
781	0
782	0
783	0
784	1
785	0
786	0
787	0
788	0
789	1
790	0
791	0
792	1
793	0
794	0
795	1
796	0
797	0
798	0
799	0
800	2
801	1
802	0
803	0
804	1
805	1
806	0
807	1
808	0
809	0
810	0
811	0
812	0
813	0
814	0
815	0
816	0
817	0
818	1
819	0
820	0
821	0
822	0
823	0
824	1
825	0
826	0
827	0
828	0
829	0
830	0
831	0
832	0
833	0
834	0
835	0
836	0
837	0
838	0
839	0
840	0
841	0
842	0
843	0
844	0
845	1
846	0
847	0
848	0
849	0
850	0
851	0
852	0
853	0
854	0
855	0
856	0
857	0
858	0
859	0
860	1
861	1
862	0
863	0
864	0
865	0
866	0
867	0
868	1
869	1
870	0
871	0
872	0
873	0
874	0
875	0
876	0
877	0
878	2
879	0
880	0
881	0
882	0
883	0
884	0
885	0
886	0
887	0
888	0
889	0
890	0
891	0
892	0
893	0
894	0
895	0
896	0
897	1
898	0
899	1
900	0
901	0
902	0
903	0
904	0
905	0
906	0
907	0
908	1
909	0
910	1
911	0
912	1
913	0
914	1
915	0
916	0
917	1
918	0
919	0
920	0
921	0
922	0
923	0
924	0
925	0
926	0
927	0
928	0
929	0
930	0
931	0
932	0
933	0
934	0
935	0
936	1
937	0
938	0
939	0
940	1
941	0
942	0
943	0
944	0
945	0
946	0
947	0
948	0
949	0
950	0
951	0
952	0
953	0
954	0
955	0
956	0
957	0
958	1
959	0
960	0
961	0
962	0
963	0
964	0
965	0
966	0
967	0
968	0
969	0
970	0
971	0
972	0
973	0
974	0
975	0
976	2
977	0
978	0
979	0
980	0
981	0
982	0
983	0
984	0
985	0
986	0
987	0
988	0
989	0
990	0
991	0
992	0
993	1
994	0
995	1
996	0
997	0
998	0
999	0
1000	0
1001	0
1002	0
1003	0
1004	0
1005	0
1006	0
1007	0
1008	0
1009	0
1010	0
1011	0
1012	0
1013	0
1014	0
1015	0
1016	0
1017	0
1018	0
1019	0
1020	0
1021	0
1022	0
1023	0
