0	0
1	0
2	0
3	0
4	0
5	0
6	0
7	0
8	0
9	0
10	0
11	0
12	0
13	0
14	304
15	13407
16	10347
17	7277
18	5384
19	4216
20	3508
21	3380
22	3411
23	3643
24	3946
25	4351
26	4788
27	5176
28	5537
29	5673
30	5553
31	5439
32	5049
33	4518
34	4012
35	3591
36	3035
37	2708
38	2501
39	2235
40	2082
41	1944
42	1941
43	1967
44	1892
45	1915
46	1957
47	1983
48	1951
49	1901
50	1918
51	1983
52	2008
53	2000
54	2038
55	2030
56	2058
57	2047
58	2125
59	2185
60	2128
61	2148
62	2068
63	2207
64	2005
65	2030
66	2088
67	2004
68	1993
69	2088
70	2065
71	2123
72	2058
73	2202
74	2196
75	2344
76	2308
77	2317
78	2365
79	2242
80	2176
81	2201
82	2153
83	2151
84	2138
85	2073
86	2085
87	2126
88	2103
89	2187
90	2062
91	2246
92	2143
93	2246
94	2161
95	2241
96	2217
97	2176
98	2098
99	2171
100	2185
101	2183
102	2137
103	2216
104	2251
105	2302
106	2382
107	2487
108	2445
109	2407
110	2484
111	2456
112	2467
113	2404
114	2267
115	2196
116	2125
117	1942
118	1797
119	1607
120	1532
121	1383
122	1203
123	1155
124	1012
125	945
126	892
127	769
128	699
129	711
130	672
131	668
132	654
133	622
134	570
135	603
136	522
137	578
138	570
139	554
140	538
141	521
142	569
143	516
144	597
145	541
146	530
147	602
148	521
149	547
150	557
151	593
152	599
153	567
154	594
155	556
156	612
157	579
158	570
159	590
160	562
161	617
162	555
163	569
164	566
165	564
166	550
167	609
168	667
169	645
170	670
171	702
172	840
173	843
174	914
175	968
176	941
177	1047
178	1148
179	1163
180	1212
181	1289
182	1362
183	1452
184	1498
185	1563
186	1568
187	1568
188	1555
189	1600
190	1641
191	1549
192	1548
193	1476
194	1338
195	1323
196	1324
197	1177
198	1154
199	1022
200	1002
201	931
202	822
203	751
204	716
205	675
206	648
207	583
208	520
209	499
210	489
211	480
212	438
213	422
214	385
215	400
216	361
217	359
218	367
219	378
220	367
221	328
222	334
223	330
224	377
225	350
226	355
227	336
228	369
229	371
230	361
231	407
232	400
233	427
234	389
235	385
236	446
237	388
238	425
239	375
240	418
241	370
242	416
243	384
244	388
245	387
246	393
247	389
248	358
249	350
250	359
251	346
252	321
253	338
254	333
255	334
256	311
257	318
258	297
259	315
260	281
261	266
262	289
263	300
264	285
265	272
266	302
267	288
268	273
269	273
270	312
271	283
272	281
273	292
274	302
275	301
276	294
277	315
278	346
279	329
280	339
281	303
282	333
283	335
284	354
285	374
286	303
287	292
288	317
289	316
290	290
291	309
292	341
293	332
294	321
295	267
296	326
297	318
298	257
299	295
300	285
301	291
302	278
303	256
304	265
305	262
306	237
307	241
308	243
309	233
310	226
311	218
312	224
313	260
314	218
315	221
316	229
317	222
318	219
319	217
320	245
321	232
322	227
323	241
324	208
325	222
326	231
327	249
328	277
329	242
330	245
331	292
332	313
333	306
334	303
335	357
336	355
337	331
338	346
339	346
340	322
341	397
342	342
343	397
344	347
345	319
346	383
347	346
348	366
349	374
350	341
351	351
352	322
353	348
354	327
355	302
356	327
357	298
358	290
359	300
360	287
361	296
362	245
363	252
364	266
365	267
366	271
367	242
368	251
369	213
370	239
371	208
372	206
373	219
374	211
375	244
376	219
377	184
378	186
379	213
380	198
381	211
382	194
383	214
384	188
385	196
386	188
387	181
388	191
389	167
390	189
391	188
392	157
393	171
394	176
395	173
396	178
397	194
398	175
399	191
400	171
401	188
402	173
403	180
404	193
405	154
406	178
407	187
408	192
409	185
410	184
411	165
412	201
413	193
414	229
415	224
416	247
417	248
418	252
419	268
420	280
421	280
422	324
423	335
424	330
425	349
426	325
427	359
428	346
429	418
430	363
431	418
432	412
433	445
434	468
435	442
436	463
437	528
438	461
439	502
440	452
441	495
442	457
443	512
444	459
445	487
446	464
447	488
448	491
449	488
450	477
451	432
452	450
453	465
454	405
455	382
456	380
457	360
458	348
459	344
460	337
461	339
462	308
463	287
464	276
465	264
466	228
467	224
468	231
469	209
470	220
471	216
472	187
473	174
474	174
475	175
476	137
477	132
478	130
479	129
480	127
481	114
482	106
483	110
484	129
485	104
486	95
487	103
488	107
489	78
490	106
491	107
492	94
493	105
494	88
495	87
496	100
497	93
498	113
499	118
500	90
501	80
502	89
503	100
504	101
505	103
506	93
507	89
508	117
509	96
510	112
511	141
512	130
513	107
514	135
515	134
516	146
517	146
518	148
519	152
520	143
521	157
522	144
523	176
524	168
525	195
526	182
527	206
528	183
529	191
530	184
531	203
532	185
533	235
534	187
535	203
536	173
537	183
538	210
539	208
540	190
541	187
542	184
543	181
544	202
545	223
546	200
547	188
548	184
549	170
550	191
551	149
552	152
553	139
554	153
555	147
556	158
557	152
558	129
559	128
560	108
561	112
562	98
563	105
564	108
565	97
566	93
567	78
568	75
569	79
570	69
571	69
572	67
573	72
574	68
575	55
576	57
577	57
578	53
579	43
580	60
581	34
582	52
583	49
584	44
585	37
586	31
587	53
588	37
589	40
590	44
591	39
592	33
593	33
594	31
595	24
596	36
597	21
598	27
599	18
600	36
601	29
602	31
603	26
604	23
605	17
606	24
607	26
608	26
609	24
610	27
611	15
612	29
613	28
614	26
615	27
616	32
617	29
618	21
619	23
620	24
621	13
622	32
623	33
624	25
625	29
626	38
627	31
628	35
629	28
630	18
631	34
632	32
633	32
634	41
635	28
636	25
637	39
638	39
639	37
640	38
641	36
642	33
643	41
644	43
645	42
646	39
647	34
648	42
649	45
650	45
651	47
652	54
653	41
654	42
655	66
656	46
657	57
658	48
659	51
660	42
661	64
662	49
663	71
664	61
665	59
666	47
667	55
668	49
669	75
670	49
671	53
672	51
673	48
674	50
675	54
676	46
677	44
678	46
679	51
680	53
681	45
682	35
683	41
684	43
685	34
686	37
687	41
688	43
689	35
690	31
691	33
692	26
693	22
694	41
695	36
696	40
697	24
698	23
699	23
700	18
701	19
702	32
703	26
704	29
705	24
706	32
707	12
708	17
709	20
710	22
711	22
712	11
713	24
714	18
715	20
716	17
717	18
718	27
719	19
720	17
721	10
722	15
723	11
724	14
725	12
726	17
727	21
728	22
729	15
730	13
731	14
732	20
733	14
734	18
735	13
736	14
737	14
738	17
739	17
740	25
741	19
742	20
743	19
744	24
745	21
746	23
747	21
748	30
749	18
750	18
751	15
752	16
753	21
754	22
755	21
756	24
757	30
758	12
759	15
760	19
761	25
762	18
763	15
764	29
765	27
766	28
767	27
768	31
769	24
770	19
771	24
772	18
773	28
774	26
775	18
776	21
777	22
778	26
779	29
780	20
781	29
782	33
783	28
784	36
785	39
786	32
787	30
788	36
789	27
790	40
791	27
792	14
793	33
794	34
795	28
796	28
797	36
798	23
799	29
800	34
801	25
802	28
803	30
804	25
805	21
806	25
807	24
808	25
809	19
810	18
811	25
812	18
813	22
814	23
815	24
816	21
817	23
818	21
819	16
820	20
821	13
822	17
823	19
824	9
825	13
826	13
827	11
828	15
829	17
830	14
831	9
832	7
833	14
834	12
835	11
836	4
837	10
838	8
839	3
840	5
841	6
842	2
843	10
844	7
845	4
846	11
847	2
848	2
849	5
850	9
851	1
852	10
853	3
854	9
855	3
856	3
857	0
858	0
859	6
860	3
861	8
862	0
863	1
864	3
865	2
866	3
867	4
868	2
869	0
870	4
871	0
872	4
873	2
874	1
875	3
876	3
877	0
878	2
879	5
880	7
881	1
882	2
883	4
884	2
885	4
886	2
887	4
888	2
889	2
890	2
891	2
892	2
893	5
894	8
895	5
896	1
897	5
898	4
899	2
900	3
901	3
902	2
903	3
904	1
905	7
906	2
907	4
908	2
909	1
910	3
911	1
912	2
913	4
914	2
915	4
916	0
917	2
918	2
919	3
920	2
921	3
922	1
923	4
924	2
925	4
926	4
927	4
928	4
929	2
930	2
931	4
932	1
933	3
934	4
935	2
936	3
937	4
938	4
939	5
940	1
941	4
942	1
943	5
944	1
945	2
946	2
947	5
948	1
949	5
950	2
951	6
952	5
953	1
954	4
955	1
956	2
957	3
958	9
959	5
960	0
961	4
962	7
963	2
964	8
965	3
966	1
967	3
968	5
969	5
970	5
971	4
972	2
973	6
974	0
975	5
976	2
977	3
978	4
979	3
980	4
981	4
982	3
983	4
984	2
985	5
986	6
987	3
988	1
989	5
990	4
991	7
992	3
993	4
994	7
995	3
996	2
997	1
998	2
999	3
1000	2
1001	1
1002	1
1003	3
1004	2
1005	2
1006	2
1007	2
1008	0
1009	0
1010	0
1011	0
1012	0
1013	0
1014	0
1015	0
1016	0
1017	0
1018	0
1019	0
1020	0
1021	0
1022	0
1023	0
