0	0
1	0
2	0
3	0
4	0
5	0
6	0
7	0
8	0
9	0
10	0
11	0
12	0
13	0
14	320
15	11865
16	8681
17	5703
18	3656
19	2337
20	1429
21	1050
22	856
23	657
24	607
25	532
26	540
27	548
28	581
29	533
30	557
31	542
32	548
33	563
34	527
35	513
36	464
37	490
38	444
39	379
40	414
41	384
42	410
43	390
44	417
45	386
46	366
47	343
48	358
49	347
50	358
51	328
52	328
53	318
54	338
55	347
56	341
57	333
58	341
59	315
60	297
61	307
62	307
63	293
64	293
65	284
66	314
67	288
68	311
69	298
70	301
71	295
72	273
73	286
74	283
75	284
76	274
77	302
78	263
79	260
80	259
81	278
82	256
83	265
84	241
85	226
86	209
87	220
88	216
89	226
90	205
91	217
92	211
93	187
94	197
95	214
96	210
97	197
98	177
99	194
100	188
101	177
102	187
103	177
104	183
105	202
106	182
107	169
108	213
109	172
110	164
111	175
112	171
113	166
114	160
115	170
116	160
117	133
118	157
119	150
120	158
121	150
122	139
123	147
124	126
125	162
126	142
127	128
128	138
129	117
130	145
131	145
132	118
133	142
134	144
135	135
136	122
137	130
138	118
139	145
140	134
141	121
142	113
143	101
144	114
145	137
146	146
147	139
148	119
149	151
150	152
151	127
152	171
153	153
154	155
155	148
156	150
157	159
158	146
159	148
160	157
161	132
162	134
163	135
164	144
165	132
166	144
167	135
168	131
169	144
170	117
171	118
172	133
173	128
174	98
175	125
176	139
177	134
178	114
179	123
180	126
181	125
182	121
183	121
184	123
185	119
186	117
187	109
188	111
189	109
190	105
191	110
192	84
193	90
194	102
195	88
196	111
197	85
198	92
199	74
200	84
201	94
202	75
203	72
204	61
205	80
206	76
207	83
208	67
209	65
210	77
211	70
212	79
213	76
214	68
215	77
216	76
217	77
218	67
219	56
220	71
221	64
222	61
223	78
224	68
225	72
226	68
227	73
228	79
229	71
230	68
231	76
232	71
233	69
234	61
235	64
236	59
237	68
238	62
239	58
240	72
241	60
242	53
243	71
244	68
245	70
246	72
247	81
248	74
249	74
250	58
251	57
252	57
253	66
254	53
255	71
256	74
257	72
258	71
259	70
260	70
261	52
262	43
263	65
264	64
265	53
266	69
267	51
268	67
269	49
270	73
271	53
272	58
273	71
274	62
275	58
276	49
277	59
278	62
279	60
280	50
281	63
282	65
283	63
284	72
285	47
286	59
287	70
288	55
289	60
290	57
291	49
292	54
293	54
294	60
295	45
296	49
297	49
298	60
299	43
300	54
301	42
302	59
303	53
304	52
305	41
306	42
307	51
308	48
309	44
310	39
311	39
312	44
313	42
314	46
315	34
316	48
317	49
318	42
319	48
320	35
321	50
322	32
323	47
324	42
325	39
326	35
327	36
328	41
329	40
330	55
331	42
332	36
333	41
334	37
335	37
336	48
337	47
338	32
339	37
340	36
341	41
342	46
343	39
344	46
345	28
346	36
347	38
348	26
349	43
350	28
351	30
352	31
353	34
354	42
355	37
356	40
357	25
358	35
359	30
360	37
361	26
362	35
363	44
364	34
365	29
366	32
367	24
368	26
369	31
370	23
371	32
372	24
373	30
374	32
375	32
376	24
377	28
378	28
379	23
380	25
381	28
382	22
383	25
384	33
385	29
386	23
387	25
388	17
389	22
390	23
391	16
392	25
393	26
394	21
395	25
396	25
397	34
398	20
399	31
400	24
401	33
402	16
403	32
404	28
405	28
406	19
407	31
408	29
409	32
410	37
411	41
412	42
413	48
414	47
415	49
416	39
417	59
418	64
419	60
420	71
421	60
422	74
423	73
424	87
425	77
426	93
427	73
428	94
429	89
430	103
431	110
432	107
433	112
434	124
435	112
436	126
437	120
438	133
439	116
440	137
441	122
442	115
443	138
444	118
445	131
446	122
447	125
448	108
449	94
450	119
451	102
452	93
453	93
454	85
455	94
456	84
457	91
458	84
459	85
460	67
461	55
462	52
463	53
464	65
465	51
466	46
467	32
468	32
469	37
470	41
471	43
472	39
473	23
474	26
475	31
476	22
477	20
478	28
479	22
480	34
481	26
482	22
483	13
484	19
485	25
486	21
487	23
488	14
489	17
490	21
491	20
492	11
493	21
494	19
495	17
496	13
497	21
498	15
499	25
500	23
501	16
502	13
503	14
504	17
505	14
506	11
507	15
508	15
509	14
510	14
511	14
512	23
513	12
514	13
515	14
516	13
517	17
518	12
519	11
520	15
521	14
522	11
523	10
524	19
525	11
526	16
527	15
528	17
529	14
530	16
531	13
532	13
533	10
534	9
535	13
536	12
537	21
538	16
539	9
540	14
541	10
542	11
543	15
544	8
545	15
546	11
547	8
548	14
549	8
550	18
551	5
552	6
553	5
554	7
555	12
556	13
557	13
558	10
559	11
560	7
561	12
562	5
563	9
564	10
565	6
566	11
567	19
568	4
569	13
570	7
571	6
572	8
573	6
574	10
575	12
576	9
577	8
578	14
579	9
580	13
581	8
582	6
583	6
584	7
585	10
586	10
587	10
588	11
589	8
590	8
591	7
592	7
593	6
594	12
595	9
596	8
597	9
598	11
599	8
600	6
601	5
602	8
603	4
604	4
605	7
606	8
607	8
608	11
609	11
610	1
611	9
612	8
613	10
614	6
615	6
616	12
617	6
618	13
619	5
620	9
621	9
622	11
623	7
624	13
625	7
626	7
627	3
628	12
629	8
630	3
631	3
632	8
633	5
634	7
635	9
636	6
637	7
638	13
639	9
640	11
641	11
642	10
643	4
644	5
645	8
646	8
647	3
648	11
649	7
650	4
651	12
652	6
653	13
654	6
655	13
656	3
657	7
658	6
659	9
660	6
661	9
662	8
663	9
664	11
665	5
666	6
667	11
668	6
669	1
670	4
671	8
672	7
673	5
674	5
675	4
676	6
677	10
678	7
679	10
680	5
681	8
682	4
683	8
684	7
685	5
686	3
687	5
688	5
689	4
690	8
691	5
692	9
693	4
694	13
695	6
696	6
697	10
698	6
699	8
700	8
701	8
702	7
703	5
704	3
705	2
706	5
707	7
708	4
709	5
710	9
711	4
712	3
713	6
714	8
715	6
716	7
717	2
718	6
719	10
720	2
721	9
722	6
723	5
724	4
725	2
726	3
727	7
728	4
729	4
730	3
731	7
732	3
733	4
734	3
735	3
736	4
737	6
738	7
739	0
740	3
741	3
742	10
743	6
744	11
745	4
746	7
747	8
748	7
749	9
750	7
751	4
752	6
753	5
754	8
755	3
756	8
757	11
758	3
759	3
760	4
761	7
762	7
763	14
764	8
765	13
766	11
767	11
768	7
769	15
770	11
771	14
772	9
773	15
774	7
775	11
776	12
777	8
778	9
779	4
780	7
781	7
782	17
783	7
784	14
785	15
786	15
787	9
788	9
789	12
790	12
791	11
792	13
793	11
794	8
795	18
796	12
797	6
798	10
799	5
800	6
801	8
802	10
803	5
804	9
805	16
806	4
807	14
808	4
809	13
810	7
811	11
812	6
813	6
814	7
815	7
816	5
817	6
818	7
819	8
820	6
821	7
822	7
823	5
824	3
825	5
826	6
827	3
828	5
829	5
830	3
831	4
832	2
833	5
834	6
835	3
836	3
837	6
838	2
839	2
840	1
841	5
842	3
843	3
844	0
845	6
846	2
847	2
848	5
849	2
850	2
851	4
852	1
853	6
854	1
855	0
856	2
857	3
858	4
859	1
860	4
861	0
862	3
863	1
864	4
865	2
866	1
867	3
868	1
869	3
870	4
871	3
872	3
873	0
874	2
875	0
876	5
877	2
878	4
879	1
880	3
881	2
882	3
883	3
884	2
885	2
886	1
887	0
888	2
889	3
890	3
891	3
892	5
893	4
894	1
895	6
896	1
897	1
898	2
899	0
900	2
901	4
902	2
903	1
904	3
905	3
906	3
907	4
908	4
909	1
910	3
911	2
912	0
913	4
914	0
915	1
916	3
917	2
918	1
919	2
920	1
921	1
922	3
923	4
924	4
925	1
926	1
927	3
928	1
929	4
930	2
931	0
932	0
933	2
934	2
935	2
936	1
937	0
938	1
939	3
940	5
941	1
942	1
943	2
944	3
945	1
946	4
947	3
948	2
949	4
950	5
951	1
952	0
953	0
954	3
955	3
956	1
957	1
958	1
959	0
960	0
961	1
962	1
963	5
964	3
965	1
966	2
967	1
968	1
969	1
970	0
971	4
972	4
973	4
974	3
975	2
976	1
977	1
978	0
979	3
980	0
981	2
982	1
983	1
984	2
985	1
986	1
987	1
988	1
989	3
990	2
991	3
992	0
993	0
994	1
995	1
996	1
997	2
998	2
999	1
1000	2
1001	2
1002	2
1003	3
1004	0
1005	3
1006	2
1007	0
1008	0
1009	0
1010	0
1011	0
1012	0
1013	0
1014	0
1015	0
1016	0
1017	0
1018	0
1019	0
1020	0
1021	0
1022	0
1023	0
