0	0
1	0
2	0
3	0
4	0
5	0
6	0
7	0
8	0
9	0
10	0
11	0
12	0
13	1
14	626
15	35217
16	26062
17	16931
18	10975
19	6931
20	4458
21	3195
22	2406
23	1950
24	1738
25	1628
26	1640
27	1673
28	1676
29	1669
30	1706
31	1691
32	1755
33	1608
34	1563
35	1515
36	1472
37	1347
38	1268
39	1268
40	1271
41	1219
42	1280
43	1159
44	1119
45	1180
46	1150
47	1109
48	1134
49	1105
50	1115
51	1112
52	1035
53	1020
54	1064
55	1029
56	1004
57	1043
58	1021
59	989
60	972
61	947
62	942
63	949
64	973
65	970
66	920
67	951
68	920
69	920
70	890
71	970
72	897
73	892
74	909
75	860
76	866
77	794
78	841
79	777
80	794
81	803
82	716
83	758
84	746
85	719
86	704
87	701
88	706
89	646
90	683
91	642
92	650
93	662
94	635
95	626
96	590
97	558
98	638
99	596
100	557
101	603
102	596
103	551
104	613
105	617
106	589
107	550
108	549
109	565
110	585
111	494
112	534
113	467
114	479
115	505
116	481
117	480
118	460
119	464
120	465
121	413
122	435
123	410
124	408
125	410
126	454
127	434
128	389
129	395
130	427
131	410
132	362
133	421
134	406
135	366
136	414
137	423
138	416
139	372
140	413
141	412
142	434
143	451
144	411
145	399
146	387
147	422
148	466
149	437
150	450
151	417
152	412
153	468
154	455
155	484
156	478
157	449
158	437
159	458
160	446
161	418
162	425
163	408
164	387
165	400
166	409
167	401
168	380
169	397
170	447
171	392
172	408
173	363
174	370
175	370
176	369
177	388
178	389
179	400
180	389
181	368
182	371
183	329
184	355
185	337
186	345
187	342
188	327
189	322
190	351
191	344
192	294
193	289
194	316
195	271
196	256
197	285
198	245
199	255
200	270
201	227
202	235
203	250
204	242
205	233
206	243
207	241
208	231
209	240
210	242
211	242
212	199
213	233
214	218
215	209
216	211
217	225
218	212
219	248
220	220
221	224
222	215
223	212
224	241
225	190
226	188
227	216
228	219
229	202
230	225
231	193
232	206
233	171
234	176
235	177
236	199
237	194
238	176
239	181
240	179
241	199
242	183
243	178
244	207
245	184
246	209
247	187
248	193
249	179
250	193
251	191
252	177
253	176
254	169
255	170
256	173
257	188
258	159
259	159
260	179
261	179
262	172
263	173
264	177
265	196
266	150
267	197
268	174
269	191
270	180
271	192
272	162
273	209
274	199
275	174
276	188
277	199
278	184
279	179
280	191
281	205
282	176
283	146
284	184
285	185
286	167
287	187
288	195
289	179
290	166
291	162
292	160
293	170
294	150
295	155
296	163
297	166
298	146
299	153
300	139
301	144
302	153
303	142
304	133
305	155
306	139
307	136
308	131
309	125
310	123
311	126
312	135
313	137
314	124
315	110
316	156
317	121
318	133
319	114
320	125
321	125
322	115
323	110
324	122
325	137
326	121
327	135
328	116
329	129
330	125
331	111
332	126
333	138
334	104
335	136
336	141
337	124
338	108
339	109
340	133
341	129
342	113
343	116
344	114
345	120
346	96
347	89
348	113
349	103
350	99
351	97
352	109
353	83
354	96
355	107
356	104
357	113
358	96
359	92
360	112
361	104
362	100
363	101
364	88
365	74
366	85
367	81
368	96
369	88
370	79
371	90
372	103
373	62
374	71
375	82
376	79
377	78
378	78
379	85
380	67
381	74
382	76
383	83
384	79
385	81
386	83
387	76
388	76
389	81
390	68
391	83
392	84
393	92
394	80
395	92
396	82
397	87
398	83
399	87
400	92
401	86
402	113
403	96
404	103
405	91
406	117
407	106
408	129
409	131
410	156
411	136
412	143
413	153
414	172
415	186
416	200
417	200
418	191
419	238
420	233
421	262
422	272
423	285
424	260
425	314
426	307
427	337
428	353
429	371
430	347
431	347
432	293
433	359
434	366
435	378
436	350
437	359
438	391
439	380
440	340
441	355
442	346
443	355
444	347
445	349
446	305
447	292
448	283
449	282
450	247
451	280
452	242
453	234
454	213
455	201
456	194
457	199
458	198
459	183
460	167
461	142
462	142
463	132
464	135
465	108
466	102
467	118
468	101
469	94
470	80
471	66
472	67
473	83
474	67
475	68
476	63
477	54
478	62
479	69
480	53
481	46
482	69
483	49
484	64
485	55
486	54
487	53
488	51
489	49
490	50
491	55
492	56
493	55
494	61
495	54
496	50
497	55
498	58
499	46
500	56
501	53
502	52
503	46
504	47
505	47
506	47
507	60
508	58
509	33
510	46
511	49
512	43
513	42
514	36
515	53
516	41
517	50
518	43
519	46
520	48
521	43
522	27
523	36
524	47
525	61
526	34
527	41
528	36
529	42
530	39
531	41
532	41
533	41
534	32
535	30
536	39
537	45
538	42
539	27
540	38
541	34
542	40
543	36
544	30
545	35
546	29
547	41
548	33
549	33
550	40
551	27
552	32
553	31
554	28
555	25
556	30
557	33
558	22
559	19
560	30
561	26
562	27
563	26
564	39
565	30
566	26
567	28
568	26
569	25
570	29
571	26
572	26
573	24
574	24
575	29
576	23
577	15
578	23
579	25
580	30
581	19
582	24
583	17
584	20
585	28
586	23
587	12
588	19
589	26
590	20
591	23
592	26
593	25
594	20
595	18
596	27
597	23
598	17
599	22
600	25
601	22
602	22
603	24
604	17
605	21
606	28
607	17
608	24
609	27
610	23
611	21
612	19
613	28
614	24
615	20
616	26
617	15
618	25
619	30
620	28
621	21
622	26
623	21
624	26
625	30
626	27
627	23
628	19
629	30
630	21
631	31
632	27
633	25
634	36
635	21
636	31
637	24
638	19
639	31
640	23
641	22
642	25
643	24
644	27
645	24
646	18
647	24
648	20
649	23
650	23
651	25
652	22
653	20
654	19
655	29
656	26
657	28
658	21
659	25
660	31
661	27
662	21
663	27
664	23
665	29
666	20
667	19
668	23
669	26
670	16
671	17
672	18
673	21
674	19
675	14
676	16
677	12
678	18
679	16
680	15
681	22
682	13
683	17
684	14
685	16
686	28
687	17
688	20
689	16
690	16
691	14
692	23
693	16
694	9
695	17
696	15
697	20
698	14
699	17
700	16
701	16
702	16
703	14
704	22
705	12
706	21
707	26
708	18
709	16
710	12
711	22
712	12
713	25
714	16
715	16
716	18
717	12
718	12
719	18
720	11
721	14
722	11
723	20
724	8
725	9
726	6
727	17
728	19
729	12
730	14
731	12
732	13
733	17
734	18
735	15
736	15
737	15
738	23
739	16
740	12
741	17
742	17
743	19
744	15
745	19
746	16
747	20
748	17
749	20
750	17
751	17
752	23
753	21
754	16
755	14
756	24
757	24
758	16
759	30
760	18
761	27
762	25
763	24
764	28
765	27
766	22
767	34
768	22
769	21
770	41
771	30
772	22
773	42
774	35
775	21
776	29
777	35
778	40
779	31
780	34
781	28
782	38
783	38
784	39
785	34
786	34
787	29
788	32
789	20
790	41
791	26
792	23
793	17
794	35
795	27
796	32
797	25
798	26
799	30
800	25
801	24
802	27
803	28
804	21
805	13
806	17
807	23
808	24
809	23
810	13
811	11
812	15
813	20
814	19
815	16
816	12
817	20
818	17
819	11
820	13
821	11
822	24
823	9
824	12
825	14
826	10
827	11
828	15
829	15
830	12
831	6
832	12
833	13
834	10
835	7
836	4
837	11
838	13
839	12
840	13
841	5
842	8
843	6
844	10
845	4
846	10
847	12
848	7
849	12
850	5
851	7
852	12
853	10
854	5
855	9
856	7
857	9
858	4
859	5
860	7
861	7
862	7
863	8
864	7
865	5
866	5
867	10
868	4
869	8
870	5
871	7
872	7
873	6
874	10
875	6
876	8
877	6
878	9
879	5
880	7
881	7
882	9
883	14
884	5
885	14
886	6
887	5
888	8
889	7
890	6
891	8
892	10
893	4
894	5
895	7
896	1
897	8
898	2
899	9
900	5
901	7
902	7
903	10
904	9
905	2
906	3
907	3
908	7
909	9
910	6
911	9
912	9
913	12
914	7
915	6
916	2
917	0
918	12
919	8
920	7
921	6
922	7
923	7
924	5
925	6
926	7
927	6
928	8
929	4
930	4
931	9
932	7
933	5
934	4
935	6
936	11
937	8
938	6
939	2
940	6
941	6
942	6
943	8
944	8
945	5
946	6
947	5
948	3
949	3
950	4
951	6
952	9
953	6
954	3
955	6
956	8
957	5
958	3
959	4
960	2
961	9
962	3
963	6
964	7
965	5
966	5
967	6
968	7
969	4
970	4
971	9
972	11
973	7
974	7
975	8
976	6
977	5
978	6
979	7
980	7
981	1
982	6
983	4
984	7
985	6
986	7
987	7
988	8
989	4
990	4
991	8
992	6
993	5
994	2
995	4
996	5
997	6
998	7
999	3
1000	1
1001	2
1002	4
1003	4
1004	5
1005	4
1006	2
1007	4
1008	0
1009	0
1010	0
1011	0
1012	0
1013	0
1014	0
1015	0
1016	0
1017	0
1018	0
1019	0
1020	0
1021	0
1022	0
1023	0
