0	0
1	0
2	0
3	0
4	0
5	0
6	0
7	0
8	0
9	0
10	0
11	0
12	0
13	3
14	754
15	39367
16	28892
17	18891
18	12023
19	7583
20	4896
21	3455
22	2624
23	2193
24	1955
25	1926
26	1801
27	1779
28	1856
29	1819
30	1892
31	1898
32	1820
33	1694
34	1781
35	1599
36	1558
37	1504
38	1430
39	1441
40	1338
41	1331
42	1330
43	1228
44	1302
45	1234
46	1244
47	1232
48	1226
49	1176
50	1138
51	1142
52	1147
53	1112
54	1194
55	1124
56	1107
57	1145
58	1009
59	1058
60	1052
61	1148
62	1030
63	1031
64	1053
65	1013
66	1033
67	1042
68	1007
69	1065
70	969
71	1005
72	945
73	974
74	985
75	949
76	940
77	891
78	850
79	879
80	844
81	871
82	818
83	763
84	827
85	809
86	745
87	764
88	739
89	762
90	736
91	703
92	703
93	726
94	670
95	706
96	615
97	650
98	675
99	643
100	638
101	649
102	610
103	642
104	599
105	584
106	608
107	601
108	608
109	627
110	588
111	568
112	573
113	576
114	570
115	563
116	524
117	581
118	540
119	522
120	525
121	517
122	476
123	477
124	498
125	445
126	452
127	453
128	446
129	474
130	448
131	446
132	462
133	477
134	440
135	471
136	427
137	487
138	480
139	436
140	464
141	433
142	460
143	483
144	450
145	473
146	446
147	457
148	498
149	484
150	477
151	465
152	455
153	451
154	458
155	494
156	480
157	509
158	482
159	478
160	505
161	447
162	466
163	485
164	455
165	442
166	444
167	466
168	482
169	429
170	429
171	429
172	439
173	446
174	415
175	416
176	451
177	427
178	408
179	426
180	414
181	416
182	409
183	360
184	379
185	396
186	377
187	365
188	349
189	331
190	371
191	369
192	328
193	326
194	332
195	314
196	267
197	276
198	284
199	289
200	283
201	304
202	272
203	256
204	279
205	232
206	262
207	256
208	271
209	253
210	247
211	250
212	247
213	228
214	263
215	224
216	225
217	229
218	232
219	223
220	257
221	239
222	244
223	250
224	206
225	235
226	274
227	224
228	243
229	230
230	248
231	256
232	222
233	246
234	273
235	260
236	207
237	212
238	228
239	225
240	212
241	207
242	206
243	223
244	219
245	222
246	212
247	203
248	189
249	208
250	181
251	186
252	217
253	213
254	189
255	190
256	215
257	196
258	214
259	184
260	208
261	197
262	194
263	211
264	195
265	202
266	207
267	190
268	189
269	182
270	182
271	181
272	251
273	219
274	179
275	194
276	223
277	206
278	191
279	210
280	199
281	208
282	207
283	191
284	199
285	184
286	204
287	216
288	180
289	169
290	157
291	187
292	174
293	181
294	150
295	163
296	185
297	187
298	163
299	169
300	165
301	183
302	167
303	122
304	145
305	152
306	138
307	135
308	140
309	155
310	158
311	130
312	148
313	131
314	137
315	134
316	137
317	142
318	120
319	135
320	114
321	158
322	127
323	147
324	136
325	125
326	131
327	147
328	121
329	159
330	125
331	112
332	145
333	130
334	140
335	140
336	120
337	129
338	122
339	140
340	133
341	131
342	111
343	131
344	123
345	118
346	122
347	124
348	124
349	129
350	105
351	109
352	114
353	120
354	118
355	108
356	103
357	98
358	105
359	108
360	90
361	104
362	102
363	83
364	90
365	95
366	75
367	102
368	90
369	85
370	94
371	79
372	81
373	106
374	100
375	89
376	88
377	86
378	98
379	100
380	76
381	74
382	80
383	82
384	83
385	78
386	82
387	93
388	81
389	65
390	81
391	63
392	91
393	81
394	70
395	76
396	85
397	87
398	102
399	101
400	74
401	104
402	88
403	110
404	118
405	128
406	110
407	124
408	116
409	107
410	147
411	162
412	144
413	165
414	189
415	190
416	198
417	191
418	222
419	236
420	241
421	292
422	314
423	306
424	324
425	322
426	329
427	311
428	359
429	338
430	361
431	352
432	411
433	362
434	389
435	402
436	385
437	443
438	380
439	374
440	362
441	361
442	407
443	386
444	355
445	388
446	360
447	331
448	344
449	316
450	317
451	326
452	334
453	280
454	238
455	253
456	241
457	221
458	234
459	181
460	177
461	185
462	169
463	151
464	148
465	110
466	112
467	102
468	114
469	114
470	93
471	95
472	96
473	77
474	82
475	69
476	87
477	70
478	89
479	61
480	77
481	72
482	57
483	63
484	72
485	54
486	71
487	50
488	60
489	61
490	62
491	55
492	56
493	48
494	69
495	51
496	70
497	49
498	50
499	74
500	51
501	51
502	58
503	50
504	60
505	57
506	56
507	53
508	58
509	49
510	51
511	40
512	52
513	50
514	39
515	47
516	27
517	41
518	52
519	43
520	46
521	34
522	54
523	42
524	40
525	47
526	50
527	44
528	52
529	31
530	49
531	44
532	38
533	32
534	42
535	41
536	40
537	36
538	36
539	45
540	40
541	40
542	47
543	42
544	44
545	35
546	43
547	37
548	35
549	42
550	41
551	36
552	29
553	32
554	32
555	23
556	31
557	41
558	46
559	37
560	29
561	29
562	37
563	28
564	35
565	27
566	30
567	39
568	24
569	37
570	27
571	31
572	24
573	30
574	34
575	23
576	26
577	26
578	27
579	23
580	25
581	28
582	25
583	29
584	27
585	26
586	19
587	18
588	18
589	23
590	29
591	28
592	26
593	22
594	28
595	19
596	23
597	28
598	18
599	22
600	21
601	30
602	24
603	23
604	29
605	17
606	31
607	29
608	24
609	29
610	33
611	28
612	27
613	32
614	27
615	33
616	29
617	26
618	25
619	35
620	26
621	28
622	25
623	17
624	29
625	24
626	25
627	19
628	36
629	25
630	30
631	34
632	31
633	37
634	24
635	18
636	27
637	29
638	24
639	27
640	27
641	26
642	28
643	31
644	34
645	29
646	32
647	32
648	27
649	32
650	31
651	22
652	25
653	25
654	28
655	23
656	23
657	18
658	28
659	29
660	28
661	32
662	34
663	28
664	36
665	18
666	23
667	19
668	22
669	26
670	26
671	19
672	23
673	25
674	22
675	26
676	17
677	16
678	24
679	22
680	31
681	23
682	21
683	26
684	14
685	27
686	22
687	19
688	18
689	18
690	28
691	19
692	11
693	19
694	18
695	16
696	23
697	18
698	23
699	15
700	21
701	15
702	7
703	25
704	22
705	22
706	14
707	10
708	17
709	14
710	18
711	22
712	12
713	15
714	14
715	8
716	20
717	16
718	13
719	7
720	17
721	13
722	24
723	15
724	18
725	15
726	18
727	22
728	12
729	7
730	19
731	21
732	12
733	21
734	13
735	14
736	12
737	15
738	21
739	20
740	12
741	14
742	22
743	21
744	15
745	15
746	24
747	23
748	29
749	16
750	24
751	23
752	30
753	19
754	30
755	26
756	26
757	32
758	33
759	23
760	26
761	25
762	25
763	30
764	29
765	39
766	27
767	34
768	37
769	31
770	40
771	37
772	28
773	33
774	34
775	43
776	43
777	32
778	37
779	40
780	41
781	28
782	36
783	36
784	32
785	43
786	32
787	39
788	38
789	44
790	28
791	25
792	36
793	29
794	23
795	42
796	35
797	28
798	25
799	30
800	29
801	38
802	40
803	27
804	33
805	30
806	25
807	25
808	25
809	23
810	20
811	23
812	23
813	21
814	24
815	9
816	13
817	11
818	19
819	17
820	17
821	12
822	12
823	11
824	21
825	13
826	11
827	8
828	12
829	10
830	10
831	9
832	15
833	8
834	15
835	8
836	12
837	12
838	8
839	5
840	9
841	10
842	12
843	11
844	8
845	10
846	1
847	12
848	12
849	9
850	7
851	11
852	6
853	9
854	4
855	8
856	8
857	10
858	3
859	5
860	6
861	5
862	12
863	6
864	8
865	8
866	11
867	5
868	11
869	3
870	5
871	3
872	9
873	8
874	9
875	4
876	3
877	13
878	12
879	9
880	9
881	7
882	6
883	9
884	11
885	7
886	5
887	8
888	9
889	10
890	8
891	6
892	9
893	6
894	6
895	11
896	8
897	11
898	11
899	7
900	4
901	5
902	10
903	9
904	7
905	1
906	6
907	5
908	4
909	7
910	7
911	2
912	9
913	2
914	4
915	11
916	9
917	9
918	12
919	9
920	5
921	3
922	9
923	2
924	6
925	8
926	11
927	4
928	7
929	5
930	3
931	6
932	6
933	8
934	8
935	2
936	7
937	7
938	6
939	4
940	4
941	7
942	7
943	2
944	6
945	6
946	6
947	4
948	10
949	8
950	11
951	8
952	6
953	7
954	8
955	12
956	6
957	6
958	6
959	6
960	3
961	10
962	12
963	4
964	6
965	7
966	4
967	1
968	11
969	6
970	6
971	5
972	7
973	3
974	4
975	3
976	4
977	8
978	0
979	7
980	4
981	6
982	13
983	8
984	6
985	8
986	9
987	3
988	5
989	7
990	9
991	7
992	4
993	12
994	7
995	14
996	4
997	7
998	9
999	5
1000	6
1001	8
1002	4
1003	7
1004	6
1005	5
1006	5
1007	9
1008	0
1009	0
1010	0
1011	0
1012	0
1013	0
1014	0
1015	0
1016	0
1017	0
1018	0
1019	0
1020	0
1021	0
1022	0
1023	0
