0	0
1	0
2	0
3	0
4	0
5	0
6	0
7	0
8	0
9	0
10	0
11	0
12	0
13	0
14	53
15	2419
16	1946
17	1391
18	1076
19	844
20	731
21	692
22	676
23	645
24	613
25	694
26	671
27	667
28	665
29	703
30	628
31	671
32	636
33	627
34	606
35	578
36	515
37	498
38	468
39	447
40	454
41	422
42	398
43	427
44	422
45	364
46	374
47	391
48	366
49	364
50	342
51	320
52	369
53	342
54	319
55	308
56	300
57	309
58	310
59	321
60	320
61	291
62	316
63	298
64	254
65	317
66	311
67	300
68	304
69	320
70	317
71	321
72	334
73	339
74	333
75	294
76	306
77	338
78	271
79	317
80	283
81	284
82	290
83	277
84	262
85	259
86	269
87	215
88	259
89	223
90	213
91	233
92	209
93	241
94	235
95	227
96	197
97	214
98	228
99	194
100	205
101	186
102	182
103	209
104	230
105	203
106	207
107	172
108	187
109	169
110	173
111	171
112	167
113	180
114	128
115	187
116	160
117	174
118	175
119	161
120	181
121	145
122	173
123	153
124	174
125	151
126	141
127	153
128	156
129	139
130	127
131	144
132	138
133	142
134	126
135	129
136	137
137	135
138	145
139	127
140	121
141	117
142	138
143	131
144	140
145	132
146	132
147	133
148	138
149	136
150	160
151	109
152	135
153	145
154	124
155	123
156	142
157	138
158	133
159	134
160	122
161	129
162	132
163	145
164	139
165	139
166	126
167	115
168	110
169	115
170	119
171	123
172	121
173	111
174	126
175	123
176	114
177	113
178	107
179	118
180	113
181	114
182	117
183	107
184	87
185	93
186	87
187	103
188	99
189	95
190	118
191	92
192	102
193	101
194	135
195	93
196	112
197	107
198	108
199	85
200	96
201	92
202	107
203	92
204	113
205	84
206	97
207	76
208	87
209	96
210	69
211	92
212	73
213	87
214	92
215	94
216	87
217	83
218	77
219	87
220	95
221	100
222	111
223	82
224	91
225	88
226	104
227	80
228	85
229	76
230	75
231	73
232	79
233	81
234	79
235	88
236	53
237	83
238	73
239	100
240	71
241	82
242	89
243	81
244	77
245	83
246	92
247	76
248	70
249	82
250	76
251	92
252	77
253	69
254	72
255	76
256	81
257	89
258	79
259	73
260	57
261	74
262	85
263	72
264	75
265	88
266	75
267	85
268	80
269	71
270	84
271	76
272	66
273	89
274	72
275	97
276	79
277	85
278	73
279	86
280	68
281	86
282	94
283	87
284	92
285	92
286	73
287	90
288	104
289	102
290	80
291	83
292	81
293	79
294	72
295	76
296	88
297	78
298	98
299	96
300	77
301	81
302	80
303	77
304	91
305	77
306	86
307	95
308	58
309	70
310	75
311	56
312	72
313	82
314	92
315	69
316	65
317	69
318	76
319	78
320	69
321	69
322	61
323	78
324	80
325	74
326	76
327	72
328	65
329	62
330	76
331	80
332	75
333	73
334	73
335	76
336	65
337	74
338	50
339	87
340	75
341	53
342	64
343	57
344	73
345	69
346	68
347	66
348	70
349	66
350	66
351	67
352	63
353	58
354	64
355	56
356	56
357	51
358	64
359	74
360	66
361	61
362	63
363	65
364	71
365	75
366	53
367	82
368	64
369	67
370	55
371	51
372	62
373	51
374	51
375	50
376	50
377	55
378	51
379	27
380	52
381	46
382	43
383	40
384	47
385	30
386	46
387	67
388	37
389	36
390	51
391	32
392	24
393	41
394	34
395	52
396	34
397	42
398	31
399	38
400	37
401	38
402	39
403	38
404	30
405	36
406	54
407	52
408	58
409	52
410	44
411	63
412	71
413	70
414	85
415	93
416	106
417	116
418	138
419	141
420	140
421	180
422	180
423	173
424	235
425	232
426	251
427	246
428	303
429	306
430	344
431	316
432	398
433	423
434	432
435	445
436	496
437	506
438	476
439	518
440	564
441	587
442	611
443	583
444	604
445	642
446	601
447	648
448	599
449	624
450	634
451	601
452	610
453	606
454	611
455	566
456	562
457	551
458	505
459	502
460	489
461	481
462	422
463	425
464	395
465	370
466	339
467	283
468	280
469	243
470	246
471	253
472	228
473	222
474	193
475	142
476	130
477	138
478	127
479	101
480	84
481	91
482	71
483	69
484	52
485	51
486	42
487	44
488	41
489	30
490	34
491	18
492	20
493	16
494	19
495	11
496	10
497	11
498	14
499	7
500	16
501	6
502	5
503	4
504	6
505	5
506	5
507	1
508	3
509	1
510	3
511	3
512	0
513	3
514	1
515	1
516	2
517	2
518	1
519	1
520	2
521	6
522	5
523	3
524	3
525	4
526	1
527	3
528	3
529	2
530	1
531	6
532	1
533	4
534	2
535	1
536	0
537	0
538	2
539	1
540	3
541	1
542	3
543	0
544	3
545	1
546	0
547	4
548	3
549	2
550	2
551	2
552	1
553	0
554	1
555	0
556	1
557	1
558	1
559	1
560	2
561	1
562	4
563	3
564	2
565	1
566	0
567	0
568	1
569	1
570	3
571	3
572	2
573	0
574	0
575	1
576	2
577	0
578	1
579	0
580	1
581	2
582	1
583	2
584	0
585	0
586	1
587	3
588	2
589	0
590	1
591	1
592	1
593	2
594	2
595	1
596	0
597	1
598	3
599	0
600	0
601	0
602	0
603	1
604	0
605	0
606	1
607	0
608	2
609	0
610	0
611	2
612	1
613	0
614	2
615	0
616	0
617	1
618	1
619	2
620	0
621	2
622	2
623	0
624	0
625	1
626	2
627	2
628	1
629	1
630	1
631	4
632	2
633	1
634	2
635	3
636	2
637	1
638	0
639	0
640	1
641	0
642	0
643	0
644	3
645	1
646	0
647	1
648	0
649	3
650	0
651	2
652	0
653	2
654	2
655	0
656	2
657	0
658	1
659	2
660	3
661	2
662	1
663	2
664	1
665	3
666	5
667	0
668	0
669	0
670	3
671	2
672	3
673	2
674	2
675	0
676	1
677	2
678	0
679	0
680	2
681	0
682	0
683	0
684	4
685	3
686	1
687	1
688	1
689	1
690	0
691	1
692	1
693	0
694	0
695	0
696	1
697	0
698	1
699	0
700	2
701	2
702	0
703	1
704	0
705	1
706	2
707	1
708	0
709	1
710	0
711	1
712	0
713	1
714	0
715	1
716	3
717	1
718	0
719	1
720	2
721	0
722	0
723	0
724	2
725	1
726	2
727	0
728	0
729	2
730	1
731	1
732	0
733	1
734	0
735	2
736	0
737	0
738	3
739	2
740	0
741	2
742	0
743	2
744	2
745	0
746	0
747	1
748	0
749	0
750	2
751	2
752	1
753	0
754	0
755	0
756	1
757	1
758	0
759	0
760	3
761	2
762	0
763	4
764	0
765	3
766	2
767	1
768	1
769	1
770	1
771	1
772	0
773	0
774	1
775	1
776	1
777	3
778	0
779	1
780	1
781	1
782	0
783	3
784	2
785	1
786	4
787	1
788	3
789	1
790	0
791	0
792	3
793	0
794	1
795	1
796	0
797	1
798	3
799	1
800	2
801	1
802	0
803	0
804	0
805	4
806	0
807	3
808	0
809	2
810	1
811	0
812	0
813	1
814	0
815	1
816	2
817	1
818	0
819	0
820	0
821	0
822	1
823	1
824	0
825	2
826	0
827	2
828	0
829	1
830	0
831	3
832	1
833	0
834	0
835	0
836	2
837	0
838	1
839	1
840	0
841	1
842	0
843	1
844	0
845	1
846	1
847	0
848	0
849	1
850	0
851	1
852	0
853	1
854	0
855	0
856	0
857	0
858	0
859	0
860	0
861	0
862	1
863	0
864	0
865	0
866	1
867	0
868	1
869	1
870	0
871	0
872	0
873	0
874	0
875	0
876	0
877	1
878	0
879	0
880	0
881	0
882	0
883	0
884	0
885	0
886	1
887	0
888	1
889	0
890	0
891	0
892	0
893	2
894	0
895	0
896	0
897	1
898	0
899	0
900	0
901	0
902	0
903	1
904	0
905	0
906	1
907	0
908	2
909	1
910	0
911	1
912	0
913	0
914	0
915	0
916	0
917	0
918	1
919	0
920	2
921	0
922	0
923	0
924	1
925	0
926	0
927	0
928	1
929	0
930	0
931	0
932	0
933	3
934	1
935	0
936	0
937	0
938	0
939	0
940	1
941	0
942	1
943	0
944	0
945	1
946	1
947	0
948	1
949	0
950	0
951	0
952	0
953	0
954	0
955	0
956	1
957	1
958	0
959	0
960	0
961	0
962	0
963	1
964	1
965	0
966	1
967	1
968	0
969	0
970	3
971	0
972	0
973	0
974	0
975	0
976	0
977	1
978	1
979	0
980	1
981	2
982	0
983	1
984	1
985	0
986	0
987	0
988	0
989	0
990	0
991	1
992	0
993	0
994	0
995	0
996	1
997	0
998	0
999	0
1000	0
1001	0
1002	1
1003	0
1004	0
1005	0
1006	0
1007	0
1008	0
1009	0
1010	0
1011	0
1012	0
1013	0
1014	0
1015	0
1016	0
1017	0
1018	0
1019	0
1020	0
1021	0
1022	0
1023	0
