0	0
1	0
2	0
3	0
4	0
5	0
6	0
7	0
8	0
9	0
10	0
11	0
12	0
13	0
14	90
15	4576
16	4232
17	4014
18	3817
19	4053
20	4399
21	4915
22	5352
23	5944
24	6554
25	7284
26	8017
27	8814
28	9396
29	9457
30	9383
31	9241
32	8405
33	7788
34	6720
35	5721
36	4937
37	4253
38	3602
39	3231
40	2983
41	2719
42	2566
43	2512
44	2570
45	2497
46	2546
47	2531
48	2538
49	2589
50	2629
51	2738
52	2676
53	2778
54	2820
55	2873
56	2999
57	3002
58	3014
59	3017
60	2978
61	3118
62	3022
63	2980
64	3043
65	2823
66	2852
67	2727
68	2688
69	2778
70	2661
71	2708
72	2656
73	2650
74	2671
75	2718
76	2695
77	2776
78	2881
79	2863
80	2889
81	2833
82	2947
83	2864
84	3009
85	2994
86	2932
87	3069
88	3208
89	3302
90	3270
91	3408
92	3387
93	3392
94	3493
95	3390
96	3367
97	3397
98	3450
99	3405
100	3360
101	3344
102	3397
103	3324
104	3524
105	3699
106	3686
107	3650
108	3833
109	4018
110	4030
111	4020
112	4050
113	3813
114	3822
115	3722
116	3417
117	3370
118	3035
119	2875
120	2551
121	2246
122	2045
123	1804
124	1659
125	1423
126	1228
127	1171
128	1015
129	941
130	826
131	800
132	722
133	732
134	647
135	660
136	665
137	634
138	617
139	624
140	591
141	595
142	618
143	605
144	581
145	550
146	571
147	575
148	569
149	587
150	577
151	582
152	538
153	582
154	605
155	571
156	562
157	621
158	561
159	558
160	595
161	590
162	549
163	586
164	594
165	635
166	636
167	649
168	684
169	714
170	782
171	867
172	902
173	991
174	996
175	1171
176	1298
177	1393
178	1480
179	1596
180	1735
181	1850
182	2007
183	2106
184	2190
185	2295
186	2400
187	2451
188	2512
189	2602
190	2575
191	2528
192	2455
193	2343
194	2338
195	2277
196	2224
197	2161
198	2005
199	1833
200	1741
201	1602
202	1386
203	1270
204	1185
205	1100
206	987
207	891
208	823
209	660
210	665
211	632
212	587
213	506
214	516
215	468
216	440
217	423
218	462
219	407
220	384
221	428
222	390
223	458
224	397
225	407
226	453
227	435
228	467
229	442
230	470
231	440
232	469
233	517
234	488
235	549
236	476
237	490
238	507
239	555
240	521
241	489
242	532
243	517
244	496
245	493
246	466
247	475
248	450
249	478
250	476
251	440
252	421
253	395
254	410
255	368
256	392
257	378
258	320
259	350
260	317
261	345
262	315
263	310
264	300
265	296
266	286
267	285
268	309
269	272
270	258
271	281
272	248
273	274
274	272
275	240
276	282
277	257
278	271
279	255
280	273
281	264
282	262
283	300
284	312
285	279
286	298
287	321
288	276
289	273
290	314
291	277
292	282
293	268
294	298
295	267
296	227
297	271
298	293
299	263
300	266
301	270
302	246
303	233
304	223
305	262
306	271
307	271
308	253
309	216
310	227
311	260
312	254
313	264
314	242
315	224
316	224
317	245
318	213
319	246
320	281
321	250
322	285
323	258
324	275
325	280
326	338
327	327
328	360
329	366
330	367
331	404
332	406
333	396
334	405
335	477
336	474
337	467
338	474
339	503
340	512
341	493
342	556
343	521
344	535
345	541
346	563
347	514
348	566
349	531
350	536
351	537
352	501
353	475
354	476
355	475
356	481
357	465
358	421
359	416
360	432
361	447
362	382
363	391
364	373
365	380
366	382
367	353
368	343
369	297
370	324
371	351
372	303
373	336
374	325
375	272
376	283
377	317
378	284
379	306
380	331
381	315
382	293
383	318
384	286
385	275
386	324
387	283
388	270
389	288
390	316
391	266
392	264
393	249
394	279
395	261
396	247
397	235
398	244
399	261
400	228
401	236
402	226
403	223
404	248
405	192
406	220
407	217
408	221
409	219
410	245
411	237
412	230
413	266
414	259
415	248
416	240
417	258
418	283
419	233
420	235
421	270
422	287
423	279
424	301
425	247
426	266
427	268
428	290
429	260
430	280
431	290
432	261
433	270
434	266
435	275
436	254
437	239
438	231
439	256
440	226
441	211
442	219
443	202
444	224
445	214
446	185
447	197
448	213
449	180
450	187
451	208
452	194
453	170
454	169
455	160
456	170
457	148
458	139
459	141
460	152
461	152
462	131
463	148
464	147
465	149
466	161
467	157
468	152
469	135
470	113
471	142
472	123
473	138
474	144
475	106
476	105
477	108
478	112
479	110
480	113
481	117
482	136
483	120
484	130
485	99
486	122
487	120
488	103
489	99
490	132
491	99
492	119
493	108
494	101
495	111
496	121
497	91
498	113
499	121
500	119
501	118
502	110
503	143
504	123
505	128
506	139
507	175
508	146
509	136
510	146
511	173
512	181
513	169
514	178
515	209
516	218
517	213
518	217
519	212
520	257
521	230
522	249
523	253
524	253
525	290
526	287
527	327
528	259
529	306
530	295
531	329
532	330
533	329
534	310
535	320
536	328
537	325
538	330
539	322
540	360
541	342
542	364
543	352
544	356
545	347
546	316
547	322
548	296
549	304
550	309
551	313
552	311
553	282
554	275
555	238
556	252
557	272
558	241
559	229
560	206
561	205
562	196
563	180
564	183
565	177
566	161
567	151
568	158
569	135
570	120
571	131
572	130
573	119
574	115
575	107
576	111
577	88
578	107
579	86
580	76
581	89
582	64
583	56
584	73
585	65
586	66
587	61
588	51
589	50
590	58
591	56
592	50
593	56
594	49
595	40
596	50
597	39
598	43
599	33
600	44
601	39
602	26
603	21
604	33
605	38
606	19
607	30
608	22
609	35
610	19
611	29
612	26
613	36
614	31
615	23
616	38
617	32
618	20
619	36
620	24
621	24
622	28
623	31
624	37
625	23
626	15
627	25
628	32
629	22
630	34
631	41
632	40
633	40
634	40
635	33
636	41
637	29
638	38
639	51
640	41
641	48
642	40
643	44
644	53
645	47
646	44
647	48
648	51
649	51
650	50
651	59
652	61
653	52
654	61
655	57
656	60
657	82
658	68
659	67
660	60
661	69
662	71
663	75
664	78
665	73
666	64
667	69
668	63
669	74
670	71
671	82
672	78
673	70
674	79
675	56
676	84
677	58
678	73
679	73
680	75
681	65
682	58
683	57
684	56
685	72
686	56
687	57
688	47
689	52
690	49
691	41
692	54
693	41
694	40
695	38
696	50
697	45
698	30
699	41
700	38
701	48
702	29
703	28
704	32
705	28
706	28
707	29
708	20
709	23
710	20
711	21
712	20
713	22
714	20
715	20
716	24
717	24
718	23
719	23
720	18
721	5
722	12
723	18
724	18
725	7
726	16
727	20
728	16
729	12
730	14
731	12
732	24
733	29
734	21
735	14
736	17
737	17
738	15
739	22
740	19
741	20
742	15
743	15
744	26
745	14
746	25
747	13
748	16
749	21
750	19
751	18
752	21
753	14
754	29
755	24
756	23
757	12
758	16
759	21
760	16
761	21
762	24
763	22
764	23
765	15
766	17
767	19
768	17
769	21
770	13
771	13
772	17
773	10
774	11
775	11
776	7
777	8
778	14
779	9
780	9
781	4
782	9
783	6
784	8
785	6
786	6
787	6
788	12
789	2
790	2
791	3
792	1
793	2
794	2
795	2
796	3
797	4
798	3
799	5
800	3
801	4
802	7
803	1
804	4
805	8
806	2
807	3
808	2
809	3
810	4
811	4
812	4
813	1
814	0
815	0
816	3
817	2
818	3
819	0
820	1
821	1
822	0
823	3
824	2
825	3
826	1
827	3
828	3
829	4
830	1
831	0
832	3
833	3
834	2
835	1
836	1
837	1
838	2
839	4
840	0
841	2
842	2
843	3
844	2
845	1
846	3
847	1
848	3
849	2
850	0
851	1
852	1
853	1
854	0
855	3
856	5
857	3
858	0
859	0
860	1
861	2
862	1
863	1
864	1
865	1
866	3
867	0
868	4
869	2
870	1
871	0
872	3
873	2
874	2
875	0
876	1
877	2
878	0
879	0
880	0
881	1
882	1
883	0
884	0
885	0
886	2
887	2
888	1
889	0
890	1
891	1
892	1
893	1
894	2
895	1
896	0
897	1
898	0
899	2
900	2
901	0
902	0
903	1
904	0
905	0
906	0
907	2
908	2
909	1
910	2
911	0
912	0
913	0
914	0
915	0
916	3
917	1
918	1
919	0
920	1
921	1
922	0
923	0
924	3
925	2
926	1
927	2
928	1
929	0
930	1
931	2
932	2
933	0
934	0
935	0
936	1
937	2
938	0
939	0
940	0
941	0
942	2
943	2
944	0
945	1
946	0
947	1
948	1
949	0
950	2
951	1
952	0
953	1
954	2
955	0
956	1
957	1
958	0
959	0
960	1
961	1
962	0
963	1
964	0
965	0
966	1
967	0
968	0
969	0
970	0
971	0
972	0
973	0
974	0
975	0
976	0
977	1
978	0
979	0
980	1
981	2
982	1
983	1
984	0
985	0
986	1
987	0
988	0
989	1
990	0
991	1
992	0
993	0
994	1
995	0
996	0
997	0
998	1
999	0
1000	0
1001	0
1002	0
1003	0
1004	0
1005	0
1006	0
1007	1
1008	0
1009	0
1010	0
1011	0
1012	0
1013	0
1014	0
1015	0
1016	0
1017	0
1018	0
1019	0
1020	0
1021	0
1022	0
1023	0
