0	0
1	0
2	0
3	0
4	0
5	0
6	0
7	0
8	0
9	0
10	165
11	383
12	350
13	299
14	331
15	262
16	268
17	242
18	263
19	279
20	265
21	286
22	282
23	273
24	239
25	253
26	210
27	237
28	197
29	198
30	192
31	218
32	214
33	180
34	224
35	213
36	240
37	262
38	240
39	250
40	292
41	336
42	393
43	397
44	413
45	422
46	347
47	345
48	318
49	324
50	348
51	324
52	350
53	346
54	372
55	377
56	406
57	361
58	408
59	364
60	374
61	371
62	435
63	466
64	427
65	441
66	421
67	444
68	396
69	416
70	458
71	410
72	435
73	424
74	447
75	425
76	463
77	415
78	480
79	456
80	467
81	492
82	461
83	465
84	476
85	451
86	476
87	439
88	475
89	470
90	462
91	450
92	484
93	460
94	462
95	453
96	474
97	505
98	475
99	496
100	454
101	434
102	485
103	477
104	467
105	400
106	448
107	496
108	441
109	463
110	440
111	403
112	462
113	415
114	450
115	429
116	433
117	401
118	409
119	417
120	386
121	435
122	424
123	443
124	407
125	398
126	382
127	364
128	378
129	391
130	398
131	425
132	376
133	378
134	372
135	411
136	401
137	375
138	410
139	386
140	381
141	371
142	383
143	390
144	384
145	364
146	386
147	360
148	363
149	378
150	334
151	338
152	330
153	349
154	369
155	358
156	350
157	343
158	334
159	366
160	346
161	345
162	332
163	313
164	378
165	318
166	334
167	357
168	353
169	317
170	348
171	323
172	293
173	328
174	299
175	275
176	260
177	283
178	273
179	260
180	264
181	254
182	275
183	249
184	262
185	270
186	256
187	241
188	243
189	260
190	238
191	251
192	240
193	231
194	225
195	216
196	215
197	233
198	220
199	239
200	225
201	196
202	234
203	197
204	220
205	227
206	201
207	211
208	216
209	210
210	221
211	211
212	211
213	197
214	183
215	206
216	206
217	212
218	168
219	187
220	189
221	177
222	197
223	189
224	177
225	199
226	174
227	194
228	197
229	175
230	172
231	161
232	202
233	163
234	173
235	175
236	162
237	179
238	173
239	149
240	165
241	156
242	160
243	158
244	143
245	154
246	167
247	142
248	155
249	144
250	154
251	167
252	136
253	153
254	161
255	132
256	124
257	147
258	136
259	129
260	141
261	150
262	165
263	134
264	134
265	136
266	121
267	124
268	140
269	129
270	136
271	137
272	121
273	128
274	131
275	133
276	117
277	149
278	145
279	130
280	136
281	115
282	137
283	121
284	134
285	127
286	127
287	127
288	123
289	120
290	126
291	97
292	132
293	128
294	109
295	104
296	133
297	115
298	116
299	110
300	114
301	111
302	129
303	129
304	121
305	110
306	97
307	124
308	106
309	98
310	131
311	102
312	104
313	116
314	120
315	114
316	92
317	105
318	128
319	123
320	104
321	112
322	98
323	118
324	124
325	131
326	128
327	105
328	133
329	115
330	116
331	132
332	126
333	123
334	133
335	120
336	112
337	131
338	126
339	140
340	129
341	138
342	115
343	123
344	129
345	142
346	119
347	139
348	142
349	116
350	135
351	114
352	124
353	93
354	109
355	126
356	106
357	113
358	95
359	121
360	104
361	86
362	97
363	95
364	91
365	103
366	80
367	96
368	85
369	101
370	71
371	76
372	87
373	83
374	92
375	78
376	95
377	104
378	78
379	80
380	98
381	78
382	84
383	86
384	81
385	80
386	88
387	81
388	73
389	88
390	69
391	84
392	82
393	109
394	78
395	95
396	93
397	106
398	90
399	94
400	71
401	105
402	70
403	78
404	84
405	101
406	97
407	80
408	77
409	89
410	92
411	74
412	73
413	70
414	70
415	82
416	69
417	88
418	81
419	82
420	66
421	73
422	66
423	75
424	79
425	67
426	53
427	64
428	74
429	68
430	58
431	64
432	68
433	67
434	62
435	52
436	59
437	64
438	64
439	56
440	59
441	63
442	69
443	45
444	63
445	50
446	58
447	56
448	62
449	58
450	67
451	57
452	64
453	61
454	63
455	67
456	47
457	56
458	61
459	59
460	51
461	52
462	74
463	53
464	48
465	62
466	44
467	42
468	59
469	67
470	57
471	59
472	65
473	50
474	58
475	60
476	53
477	61
478	53
479	61
480	48
481	50
482	61
483	52
484	53
485	59
486	49
487	63
488	48
489	42
490	53
491	54
492	38
493	66
494	49
495	50
496	35
497	42
498	52
499	58
500	67
501	49
502	36
503	42
504	59
505	53
506	52
507	65
508	53
509	44
510	45
511	34
512	48
513	59
514	51
515	58
516	55
517	48
518	56
519	51
520	44
521	44
522	42
523	41
524	40
525	47
526	43
527	50
528	51
529	38
530	52
531	50
532	42
533	49
534	47
535	39
536	49
537	49
538	47
539	43
540	56
541	56
542	59
543	48
544	44
545	46
546	46
547	55
548	39
549	45
550	39
551	38
552	52
553	37
554	44
555	35
556	39
557	42
558	32
559	40
560	39
561	41
562	39
563	50
564	49
565	40
566	37
567	31
568	35
569	38
570	37
571	31
572	51
573	44
574	42
575	42
576	39
577	33
578	50
579	43
580	43
581	37
582	42
583	41
584	40
585	40
586	43
587	45
588	38
589	41
590	32
591	36
592	53
593	38
594	47
595	39
596	44
597	53
598	42
599	39
600	34
601	34
602	39
603	32
604	46
605	47
606	43
607	37
608	37
609	46
610	39
611	36
612	46
613	38
614	36
615	41
616	43
617	37
618	38
619	33
620	35
621	44
622	31
623	27
624	42
625	35
626	45
627	38
628	32
629	39
630	42
631	40
632	30
633	39
634	29
635	36
636	33
637	32
638	37
639	40
640	26
641	37
642	35
643	43
644	34
645	33
646	39
647	36
648	24
649	31
650	39
651	25
652	37
653	34
654	34
655	27
656	38
657	18
658	23
659	47
660	23
661	25
662	21
663	22
664	34
665	28
666	30
667	31
668	33
669	30
670	39
671	37
672	30
673	34
674	36
675	40
676	30
677	25
678	26
679	45
680	31
681	42
682	32
683	18
684	31
685	34
686	25
687	25
688	22
689	34
690	39
691	22
692	30
693	27
694	20
695	28
696	29
697	34
698	16
699	27
700	29
701	39
702	29
703	28
704	31
705	32
706	29
707	28
708	25
709	17
710	35
711	25
712	26
713	34
714	31
715	29
716	33
717	25
718	29
719	24
720	15
721	30
722	35
723	27
724	31
725	30
726	31
727	32
728	39
729	24
730	34
731	20
732	31
733	22
734	22
735	32
736	20
737	25
738	23
739	21
740	20
741	29
742	31
743	29
744	25
745	18
746	43
747	27
748	22
749	18
750	23
751	19
752	33
753	25
754	41
755	31
756	32
757	26
758	33
759	30
760	23
761	19
762	29
763	25
764	32
765	24
766	21
767	24
768	17
769	21
770	19
771	29
772	18
773	25
774	29
775	21
776	25
777	32
778	20
779	28
780	26
781	25
782	22
783	28
784	23
785	13
786	28
787	30
788	23
789	12
790	24
791	15
792	22
793	24
794	19
795	28
796	26
797	25
798	17
799	32
800	29
801	22
802	17
803	11
804	22
805	27
806	26
807	20
808	33
809	22
810	20
811	26
812	19
813	30
814	20
815	19
816	22
817	29
818	22
819	15
820	18
821	20
822	34
823	22
824	19
825	15
826	17
827	27
828	13
829	23
830	21
831	20
832	20
833	20
834	18
835	22
836	22
837	21
838	24
839	20
840	19
841	20
842	27
843	15
844	23
845	19
846	25
847	19
848	26
849	19
850	24
851	15
852	16
853	18
854	18
855	19
856	29
857	18
858	18
859	15
860	23
861	12
862	21
863	14
864	17
865	19
866	20
867	17
868	18
869	13
870	23
871	13
872	12
873	22
874	19
875	24
876	29
877	24
878	18
879	27
880	13
881	15
882	17
883	22
884	14
885	18
886	28
887	14
888	20
889	23
890	15
891	23
892	21
893	17
894	18
895	21
896	19
897	16
898	19
899	15
900	16
901	18
902	20
903	21
904	14
905	20
906	19
907	11
908	18
909	23
910	27
911	20
912	13
913	16
914	20
915	15
916	18
917	21
918	30
919	25
920	24
921	21
922	21
923	18
924	15
925	25
926	13
927	20
928	11
929	19
930	12
931	15
932	11
933	17
934	26
935	16
936	23
937	23
938	9
939	22
940	21
941	14
942	22
943	27
944	21
945	24
946	22
947	9
948	20
949	21
950	20
951	14
952	18
953	24
954	17
955	27
956	28
957	15
958	15
959	20
960	16
961	21
962	21
963	21
964	22
965	16
966	24
967	14
968	19
969	20
970	17
971	26
972	13
973	23
974	19
975	20
976	15
977	20
978	22
979	19
980	18
981	19
982	16
983	17
984	17
985	23
986	20
987	15
988	17
989	23
990	14
991	18
992	12
993	17
994	23
995	7
996	11
997	10
998	15
999	23
1000	18
1001	21
1002	12
1003	11
1004	11
1005	11
1006	14
1007	11
1008	12
1009	21
1010	23
1011	17
1012	9
1013	21
1014	8
1015	9
1016	9
1017	16
1018	17
1019	18
1020	16
1021	16
1022	16
1023	20
1024	23
1025	15
1026	13
1027	14
1028	15
1029	13
1030	19
1031	11
1032	15
1033	11
1034	13
1035	10
1036	10
1037	19
1038	23
1039	15
1040	14
1041	12
1042	15
1043	16
1044	17
1045	15
1046	12
1047	12
1048	12
1049	8
1050	12
1051	18
1052	20
1053	19
1054	12
1055	9
1056	9
1057	11
1058	16
1059	16
1060	12
1061	15
1062	21
1063	15
1064	12
1065	14
1066	18
1067	13
1068	7
1069	12
1070	13
1071	12
1072	14
1073	18
1074	16
1075	13
1076	10
1077	11
1078	9
1079	20
1080	18
1081	9
1082	9
1083	11
1084	13
1085	11
1086	16
1087	13
1088	10
1089	10
1090	10
1091	13
1092	7
1093	15
1094	12
1095	5
1096	10
1097	9
1098	14
1099	10
1100	11
1101	12
1102	17
1103	18
1104	16
1105	8
1106	12
1107	16
1108	13
1109	11
1110	14
1111	5
1112	14
1113	12
1114	13
1115	12
1116	7
1117	14
1118	10
1119	15
1120	15
1121	15
1122	7
1123	11
1124	9
1125	12
1126	15
1127	13
1128	16
1129	12
1130	15
1131	9
1132	11
1133	16
1134	11
1135	9
1136	13
1137	18
1138	10
1139	11
1140	14
1141	10
1142	10
1143	11
1144	10
1145	13
1146	17
1147	11
1148	10
1149	13
1150	11
1151	10
1152	21
1153	10
1154	12
1155	5
1156	12
1157	11
1158	8
1159	11
1160	10
1161	8
1162	12
1163	11
1164	10
1165	8
1166	14
1167	6
1168	10
1169	9
1170	13
1171	13
1172	11
1173	12
1174	12
1175	7
1176	8
1177	11
1178	7
1179	8
1180	10
1181	11
1182	9
1183	7
1184	9
1185	10
1186	12
1187	12
1188	10
1189	9
1190	14
1191	13
1192	17
1193	9
1194	9
1195	14
1196	10
1197	12
1198	8
1199	9
1200	10
1201	9
1202	7
1203	7
1204	9
1205	12
1206	11
1207	18
1208	11
1209	12
1210	9
1211	3
1212	5
1213	13
1214	13
1215	6
1216	3
1217	11
1218	13
1219	10
1220	10
1221	15
1222	13
1223	10
1224	10
1225	11
1226	7
1227	9
1228	5
1229	9
1230	13
1231	5
1232	9
1233	3
1234	6
1235	12
1236	8
1237	8
1238	4
1239	9
1240	10
1241	11
1242	13
1243	16
1244	8
1245	10
1246	9
1247	8
1248	4
1249	7
1250	5
1251	6
1252	5
1253	5
1254	8
1255	9
1256	8
1257	7
1258	6
1259	10
1260	9
1261	6
1262	7
1263	13
1264	7
1265	13
1266	9
1267	11
1268	8
1269	7
1270	9
1271	7
1272	6
1273	18
1274	9
1275	15
1276	8
1277	6
1278	5
1279	6
1280	8
1281	6
1282	6
1283	3
1284	8
1285	8
1286	11
1287	12
1288	9
1289	7
1290	7
1291	9
1292	19
1293	4
1294	8
1295	6
1296	6
1297	8
1298	10
1299	4
1300	12
1301	3
1302	6
1303	13
1304	8
1305	6
1306	10
1307	4
1308	10
1309	5
1310	3
1311	8
1312	8
1313	8
1314	8
1315	5
1316	5
1317	12
1318	12
1319	8
1320	9
1321	10
1322	11
1323	9
1324	7
1325	6
1326	11
1327	7
1328	9
1329	6
1330	8
1331	8
1332	9
1333	9
1334	7
1335	7
1336	7
1337	7
1338	11
1339	6
1340	15
1341	8
1342	11
1343	8
1344	6
1345	12
1346	9
1347	7
1348	5
1349	11
1350	7
1351	5
1352	5
1353	6
1354	5
1355	6
1356	5
1357	16
1358	7
1359	14
1360	12
1361	14
1362	9
1363	4
1364	2
1365	9
1366	7
1367	10
1368	8
1369	9
1370	9
1371	7
1372	10
1373	12
1374	7
1375	8
1376	8
1377	7
1378	8
1379	10
1380	8
1381	9
1382	5
1383	11
1384	3
1385	9
1386	10
1387	8
1388	12
1389	9
1390	7
1391	9
1392	10
1393	5
1394	12
1395	10
1396	8
1397	5
1398	5
1399	10
1400	8
1401	5
1402	2
1403	17
1404	4
1405	6
1406	8
1407	6
1408	9
1409	10
1410	4
1411	9
1412	8
1413	8
1414	8
1415	8
1416	11
1417	10
1418	9
1419	7
1420	8
1421	5
1422	6
1423	8
1424	8
1425	11
1426	4
1427	10
1428	9
1429	9
1430	10
1431	8
1432	10
1433	3
1434	5
1435	9
1436	6
1437	4
1438	5
1439	8
1440	9
1441	6
1442	5
1443	6
1444	8
1445	5
1446	11
1447	7
1448	7
1449	12
1450	9
1451	17
1452	10
1453	12
1454	7
1455	8
1456	12
1457	5
1458	5
1459	13
1460	7
1461	7
1462	6
1463	6
1464	6
1465	7
1466	4
1467	8
1468	9
1469	8
1470	8
1471	4
1472	4
1473	10
1474	7
1475	6
1476	12
1477	7
1478	5
1479	7
1480	10
1481	7
1482	6
1483	7
1484	7
1485	9
1486	7
1487	11
1488	3
1489	12
1490	16
1491	10
1492	12
1493	6
1494	8
1495	10
1496	7
1497	11
1498	4
1499	4
1500	7
1501	8
1502	12
1503	11
1504	7
1505	10
1506	9
1507	4
1508	0
1509	4
1510	6
1511	6
1512	11
1513	8
1514	3
1515	4
1516	4
1517	16
1518	13
1519	8
1520	7
1521	9
1522	6
1523	5
1524	7
1525	6
1526	12
1527	5
1528	11
1529	11
1530	3
1531	1
1532	9
1533	6
1534	7
1535	10
1536	11
1537	5
1538	7
1539	4
1540	5
1541	5
1542	5
1543	6
1544	13
1545	4
1546	10
1547	7
1548	7
1549	2
1550	6
1551	7
1552	4
1553	5
1554	4
1555	6
1556	3
1557	8
1558	5
1559	5
1560	4
1561	1
1562	9
1563	5
1564	2
1565	9
1566	6
1567	4
1568	9
1569	8
1570	4
1571	6
1572	6
1573	5
1574	1
1575	3
1576	4
1577	6
1578	8
1579	6
1580	5
1581	7
1582	4
1583	8
1584	6
1585	6
1586	12
1587	2
1588	11
1589	7
1590	2
1591	6
1592	7
1593	9
1594	3
1595	7
1596	4
1597	8
1598	3
1599	7
1600	5
1601	3
1602	2
1603	8
1604	7
1605	4
1606	3
1607	9
1608	8
1609	6
1610	6
1611	6
1612	8
1613	8
1614	5
1615	7
1616	10
1617	6
1618	3
1619	9
1620	6
1621	4
1622	9
1623	6
1624	5
1625	8
1626	8
1627	3
1628	5
1629	4
1630	5
1631	10
1632	6
1633	3
1634	4
1635	3
1636	4
1637	5
1638	6
1639	6
1640	4
1641	6
1642	6
1643	6
1644	3
1645	5
1646	8
1647	5
1648	6
1649	4
1650	4
1651	6
1652	7
1653	4
1654	3
1655	3
1656	6
1657	9
1658	7
1659	7
1660	11
1661	5
1662	5
1663	4
1664	8
1665	6
1666	5
1667	7
1668	5
1669	11
1670	3
1671	3
1672	4
1673	12
1674	2
1675	6
1676	2
1677	5
1678	6
1679	5
1680	7
1681	2
1682	9
1683	4
1684	2
1685	4
1686	7
1687	9
1688	8
1689	6
1690	8
1691	5
1692	7
1693	9
1694	8
1695	8
1696	3
1697	6
1698	6
1699	4
1700	6
1701	5
1702	10
1703	5
1704	8
1705	5
1706	6
1707	6
1708	7
1709	4
1710	11
1711	6
1712	4
1713	6
1714	7
1715	10
1716	3
1717	8
1718	7
1719	6
1720	7
1721	8
1722	8
1723	6
1724	10
1725	6
1726	6
1727	7
1728	5
1729	4
1730	7
1731	6
1732	5
1733	7
1734	7
1735	7
1736	6
1737	3
1738	5
1739	7
1740	7
1741	6
1742	7
1743	5
1744	5
1745	8
1746	3
1747	4
1748	5
1749	4
1750	6
1751	5
1752	5
1753	4
1754	4
1755	3
1756	5
1757	5
1758	9
1759	3
1760	3
1761	9
1762	3
1763	6
1764	6
1765	5
1766	5
1767	0
1768	4
1769	3
1770	6
1771	4
1772	2
1773	5
1774	4
1775	5
1776	6
1777	4
1778	1
1779	6
1780	8
1781	5
1782	7
1783	4
1784	5
1785	3
1786	8
1787	4
1788	4
1789	1
1790	7
1791	4
1792	4
1793	4
1794	7
1795	4
1796	5
1797	5
1798	3
1799	4
1800	5
1801	4
1802	3
1803	3
1804	4
1805	4
1806	4
1807	1
1808	5
1809	4
1810	4
1811	3
1812	4
1813	3
1814	1
1815	5
1816	2
1817	4
1818	1
1819	5
1820	5
1821	2
1822	3
1823	3
1824	6
1825	4
1826	4
1827	4
1828	2
1829	5
1830	6
1831	3
1832	3
1833	1
1834	1
1835	3
1836	2
1837	4
1838	1
1839	3
1840	7
1841	6
1842	2
1843	1
1844	5
1845	4
1846	5
1847	1
1848	3
1849	5
1850	5
1851	2
1852	7
1853	7
1854	2
1855	4
1856	2
1857	6
1858	4
1859	5
1860	3
1861	7
1862	5
1863	8
1864	4
1865	6
1866	3
1867	7
1868	6
1869	5
1870	9
1871	4
1872	4
1873	4
1874	3
1875	6
1876	5
1877	5
1878	5
1879	8
1880	1
1881	4
1882	2
1883	1
1884	4
1885	6
1886	3
1887	9
1888	2
1889	3
1890	2
1891	0
1892	3
1893	3
1894	1
1895	5
1896	2
1897	6
1898	4
1899	5
1900	5
1901	2
1902	0
1903	1
1904	6
1905	1
1906	3
1907	0
1908	5
1909	3
1910	4
1911	2
1912	3
1913	3
1914	3
1915	2
1916	1
1917	3
1918	4
1919	3
1920	3
1921	1
1922	1
1923	1
1924	1
1925	8
1926	5
1927	2
1928	3
1929	3
1930	4
1931	5
1932	4
1933	2
1934	3
1935	4
1936	3
1937	5
1938	1
1939	3
1940	6
1941	7
1942	3
1943	7
1944	4
1945	1
1946	3
1947	5
1948	3
1949	2
1950	5
1951	1
1952	2
1953	6
1954	4
1955	2
1956	5
1957	2
1958	5
1959	4
1960	5
1961	1
1962	4
1963	3
1964	4
1965	8
1966	7
1967	2
1968	3
1969	1
1970	4
1971	1
1972	3
1973	3
1974	1
1975	3
1976	6
1977	3
1978	1
1979	0
1980	6
1981	4
1982	2
1983	4
1984	2
1985	4
1986	4
1987	2
1988	2
1989	4
1990	3
1991	3
1992	5
1993	4
1994	4
1995	0
1996	4
1997	2
1998	4
1999	1
2000	2
2001	5
2002	2
2003	3
2004	3
2005	4
2006	5
2007	3
2008	1
2009	1
2010	4
2011	3
2012	4
2013	2
2014	4
2015	4
2016	3
2017	4
2018	4
2019	2
2020	0
2021	3
2022	2
2023	1
2024	3
2025	5
2026	3
2027	4
2028	2
2029	4
2030	2
2031	3
2032	3
2033	4
2034	10
2035	2
2036	5
2037	2
2038	3
2039	2
2040	2
2041	6
2042	2
2043	3
2044	4
2045	4
2046	4
2047	0
