0	0
1	0
2	0
3	0
4	0
5	0
6	0
7	0
8	0
9	0
10	297
11	649
12	620
13	656
14	636
15	631
16	585
17	633
18	677
19	770
20	839
21	907
22	1010
23	876
24	892
25	850
26	794
27	794
28	773
29	796
30	857
31	936
32	889
33	988
34	989
35	1044
36	1032
37	1021
38	1071
39	1097
40	1136
41	1272
42	1311
43	1384
44	1419
45	1502
46	1493
47	1490
48	1608
49	1722
50	1841
51	1959
52	2114
53	2387
54	2583
55	2769
56	2729
57	2618
58	2470
59	2310
60	2160
61	2108
62	2018
63	2000
64	1984
65	1889
66	1851
67	1647
68	1656
69	1526
70	1479
71	1431
72	1335
73	1255
74	1257
75	1123
76	1183
77	1188
78	1185
79	1145
80	1075
81	1090
82	1167
83	1101
84	1140
85	1130
86	1139
87	1191
88	1156
89	1152
90	1190
91	1237
92	1202
93	1272
94	1246
95	1176
96	1190
97	1238
98	1146
99	1162
100	1119
101	1145
102	1114
103	1111
104	1095
105	1113
106	1142
107	1120
108	1166
109	1065
110	1068
111	996
112	1042
113	1009
114	1001
115	1033
116	1023
117	991
118	994
119	1036
120	1017
121	1046
122	1017
123	1059
124	1019
125	1013
126	1019
127	1027
128	1062
129	1015
130	1104
131	1032
132	994
133	1009
134	989
135	1013
136	984
137	976
138	966
139	997
140	1050
141	1035
142	955
143	1015
144	1000
145	1027
146	961
147	981
148	1027
149	1072
150	1104
151	1028
152	1161
153	1162
154	1128
155	1219
156	1364
157	1350
158	1411
159	1502
160	1524
161	1507
162	1589
163	1491
164	1546
165	1447
166	1370
167	1400
168	1330
169	1200
170	1177
171	1116
172	1052
173	993
174	963
175	830
176	849
177	791
178	769
179	776
180	723
181	733
182	726
183	680
184	591
185	678
186	686
187	700
188	711
189	694
190	669
191	719
192	683
193	762
194	697
195	686
196	673
197	685
198	683
199	678
200	643
201	634
202	664
203	651
204	672
205	619
206	618
207	594
208	621
209	588
210	601
211	592
212	574
213	547
214	550
215	570
216	568
217	507
218	564
219	536
220	546
221	579
222	576
223	558
224	600
225	665
226	606
227	666
228	641
229	692
230	625
231	650
232	697
233	667
234	668
235	686
236	684
237	630
238	665
239	642
240	616
241	677
242	592
243	567
244	567
245	556
246	553
247	496
248	470
249	452
250	436
251	408
252	414
253	403
254	382
255	350
256	372
257	331
258	339
259	322
260	344
261	313
262	288
263	310
264	282
265	285
266	316
267	243
268	294
269	291
270	293
271	295
272	304
273	312
274	264
275	270
276	285
277	262
278	307
279	297
280	306
281	257
282	275
283	290
284	300
285	254
286	276
287	278
288	266
289	303
290	259
291	249
292	277
293	259
294	245
295	257
296	267
297	252
298	251
299	267
300	247
301	261
302	247
303	258
304	253
305	246
306	244
307	262
308	267
309	268
310	248
311	262
312	220
313	258
314	238
315	257
316	281
317	261
318	239
319	248
320	243
321	230
322	265
323	238
324	253
325	258
326	245
327	243
328	243
329	241
330	258
331	254
332	245
333	267
334	269
335	267
336	281
337	265
338	254
339	287
340	249
341	265
342	248
343	255
344	277
345	266
346	252
347	247
348	234
349	239
350	275
351	272
352	221
353	218
354	240
355	255
356	237
357	244
358	228
359	237
360	227
361	236
362	249
363	215
364	229
365	241
366	234
367	220
368	224
369	252
370	226
371	263
372	219
373	218
374	238
375	273
376	230
377	263
378	260
379	234
380	263
381	295
382	292
383	308
384	318
385	310
386	325
387	309
388	302
389	329
390	331
391	325
392	375
393	348
394	320
395	302
396	331
397	346
398	389
399	303
400	303
401	326
402	352
403	318
404	327
405	348
406	296
407	335
408	312
409	321
410	288
411	297
412	270
413	292
414	292
415	280
416	293
417	258
418	226
419	237
420	237
421	199
422	213
423	213
424	205
425	197
426	209
427	206
428	190
429	159
430	176
431	165
432	193
433	172
434	171
435	173
436	139
437	159
438	153
439	144
440	158
441	146
442	156
443	171
444	157
445	154
446	148
447	143
448	152
449	151
450	139
451	142
452	137
453	162
454	143
455	147
456	179
457	138
458	137
459	125
460	141
461	133
462	130
463	158
464	157
465	128
466	142
467	130
468	150
469	134
470	156
471	149
472	150
473	157
474	135
475	167
476	182
477	140
478	140
479	139
480	160
481	138
482	133
483	159
484	149
485	166
486	148
487	125
488	155
489	146
490	162
491	171
492	137
493	126
494	137
495	135
496	150
497	152
498	144
499	145
500	144
501	155
502	134
503	136
504	152
505	148
506	173
507	132
508	152
509	136
510	157
511	142
512	149
513	147
514	144
515	143
516	128
517	145
518	132
519	133
520	137
521	119
522	140
523	135
524	139
525	126
526	148
527	142
528	129
529	141
530	135
531	136
532	109
533	154
534	138
535	143
536	113
537	132
538	130
539	126
540	116
541	140
542	142
543	134
544	139
545	110
546	122
547	126
548	139
549	143
550	131
551	126
552	117
553	127
554	122
555	107
556	113
557	126
558	139
559	134
560	144
561	112
562	114
563	119
564	133
565	111
566	127
567	128
568	108
569	129
570	132
571	140
572	137
573	149
574	135
575	135
576	139
577	125
578	142
579	141
580	139
581	148
582	130
583	139
584	153
585	153
586	151
587	129
588	139
589	128
590	130
591	151
592	144
593	132
594	154
595	168
596	144
597	133
598	146
599	161
600	154
601	151
602	167
603	164
604	138
605	173
606	145
607	121
608	130
609	161
610	169
611	146
612	164
613	155
614	148
615	128
616	142
617	166
618	154
619	162
620	147
621	135
622	146
623	170
624	143
625	150
626	142
627	138
628	147
629	132
630	157
631	130
632	119
633	140
634	144
635	128
636	150
637	119
638	139
639	128
640	118
641	148
642	139
643	114
644	125
645	134
646	138
647	115
648	114
649	122
650	145
651	114
652	115
653	134
654	114
655	130
656	132
657	103
658	113
659	124
660	116
661	107
662	116
663	125
664	116
665	120
666	125
667	118
668	102
669	105
670	101
671	107
672	102
673	109
674	114
675	99
676	100
677	99
678	91
679	104
680	96
681	93
682	97
683	96
684	107
685	77
686	103
687	95
688	83
689	104
690	98
691	87
692	88
693	105
694	94
695	100
696	115
697	93
698	114
699	102
700	110
701	96
702	105
703	105
704	109
705	104
706	95
707	119
708	95
709	106
710	109
711	108
712	96
713	117
714	118
715	122
716	105
717	130
718	101
719	97
720	116
721	115
722	108
723	105
724	133
725	106
726	124
727	109
728	114
729	106
730	132
731	92
732	116
733	115
734	131
735	138
736	120
737	97
738	131
739	119
740	107
741	113
742	109
743	119
744	111
745	98
746	112
747	118
748	115
749	107
750	95
751	112
752	102
753	114
754	105
755	118
756	109
757	103
758	97
759	95
760	112
761	103
762	119
763	104
764	103
765	102
766	93
767	94
768	107
769	96
770	80
771	102
772	106
773	90
774	93
775	90
776	83
777	84
778	96
779	79
780	84
781	93
782	70
783	90
784	74
785	86
786	68
787	89
788	81
789	89
790	76
791	83
792	89
793	88
794	83
795	70
796	76
797	74
798	65
799	76
800	72
801	60
802	78
803	66
804	69
805	72
806	71
807	69
808	53
809	66
810	73
811	59
812	57
813	49
814	57
815	61
816	55
817	54
818	53
819	62
820	47
821	51
822	57
823	62
824	55
825	43
826	51
827	48
828	42
829	55
830	48
831	51
832	59
833	49
834	45
835	47
836	57
837	43
838	49
839	41
840	36
841	49
842	47
843	55
844	47
845	47
846	43
847	33
848	58
849	46
850	46
851	41
852	38
853	45
854	38
855	34
856	45
857	45
858	27
859	44
860	42
861	42
862	42
863	41
864	40
865	29
866	49
867	34
868	42
869	42
870	33
871	51
872	36
873	42
874	45
875	42
876	47
877	53
878	38
879	47
880	48
881	55
882	42
883	48
884	40
885	55
886	41
887	54
888	55
889	56
890	61
891	56
892	65
893	57
894	52
895	38
896	57
897	70
898	81
899	59
900	68
901	62
902	68
903	70
904	66
905	83
906	49
907	88
908	81
909	70
910	89
911	92
912	92
913	88
914	108
915	85
916	95
917	119
918	108
919	120
920	130
921	110
922	113
923	125
924	116
925	135
926	126
927	133
928	142
929	172
930	133
931	164
932	165
933	163
934	175
935	164
936	147
937	180
938	151
939	150
940	154
941	184
942	185
943	179
944	187
945	192
946	188
947	180
948	170
949	189
950	175
951	192
952	209
953	177
954	193
955	165
956	175
957	174
958	159
959	183
960	195
961	175
962	167
963	183
964	158
965	154
966	146
967	155
968	165
969	133
970	130
971	142
972	150
973	127
974	144
975	130
976	134
977	120
978	103
979	119
980	112
981	95
982	108
983	124
984	69
985	79
986	71
987	80
988	61
989	78
990	76
991	58
992	65
993	63
994	52
995	59
996	56
997	52
998	59
999	46
1000	38
1001	33
1002	49
1003	54
1004	38
1005	34
1006	38
1007	48
1008	46
1009	33
1010	45
1011	33
1012	41
1013	41
1014	40
1015	31
1016	42
1017	25
1018	25
1019	32
1020	31
1021	28
1022	32
1023	26
1024	18
1025	31
1026	35
1027	24
1028	25
1029	32
1030	28
1031	25
1032	28
1033	24
1034	19
1035	31
1036	37
1037	28
1038	24
1039	28
1040	25
1041	21
1042	25
1043	19
1044	19
1045	23
1046	31
1047	26
1048	35
1049	24
1050	17
1051	16
1052	20
1053	22
1054	27
1055	23
1056	19
1057	24
1058	25
1059	26
1060	24
1061	14
1062	20
1063	26
1064	17
1065	17
1066	24
1067	21
1068	20
1069	21
1070	13
1071	23
1072	16
1073	22
1074	23
1075	17
1076	13
1077	15
1078	20
1079	29
1080	19
1081	19
1082	8
1083	16
1084	21
1085	31
1086	28
1087	20
1088	16
1089	23
1090	16
1091	25
1092	19
1093	18
1094	14
1095	19
1096	22
1097	14
1098	26
1099	20
1100	12
1101	23
1102	22
1103	22
1104	20
1105	16
1106	28
1107	22
1108	26
1109	24
1110	20
1111	18
1112	20
1113	21
1114	17
1115	18
1116	22
1117	17
1118	12
1119	29
1120	27
1121	24
1122	19
1123	22
1124	20
1125	24
1126	17
1127	23
1128	22
1129	31
1130	24
1131	15
1132	20
1133	25
1134	13
1135	17
1136	24
1137	17
1138	23
1139	18
1140	22
1141	30
1142	24
1143	26
1144	22
1145	23
1146	16
1147	28
1148	16
1149	21
1150	29
1151	23
1152	34
1153	15
1154	24
1155	21
1156	24
1157	20
1158	19
1159	28
1160	19
1161	23
1162	20
1163	19
1164	14
1165	19
1166	20
1167	22
1168	19
1169	26
1170	19
1171	17
1172	17
1173	22
1174	19
1175	16
1176	15
1177	11
1178	25
1179	17
1180	13
1181	17
1182	17
1183	24
1184	13
1185	12
1186	21
1187	11
1188	22
1189	21
1190	14
1191	22
1192	23
1193	15
1194	25
1195	19
1196	12
1197	15
1198	17
1199	15
1200	13
1201	20
1202	14
1203	12
1204	15
1205	10
1206	13
1207	16
1208	16
1209	15
1210	24
1211	8
1212	10
1213	14
1214	14
1215	17
1216	16
1217	18
1218	15
1219	14
1220	8
1221	17
1222	21
1223	11
1224	15
1225	16
1226	15
1227	10
1228	16
1229	16
1230	17
1231	13
1232	15
1233	11
1234	12
1235	10
1236	23
1237	8
1238	12
1239	16
1240	12
1241	7
1242	20
1243	13
1244	15
1245	13
1246	19
1247	19
1248	7
1249	19
1250	10
1251	9
1252	21
1253	12
1254	7
1255	14
1256	20
1257	14
1258	14
1259	14
1260	16
1261	15
1262	14
1263	7
1264	12
1265	4
1266	12
1267	10
1268	11
1269	8
1270	18
1271	8
1272	17
1273	21
1274	13
1275	16
1276	14
1277	16
1278	9
1279	12
1280	14
1281	14
1282	13
1283	16
1284	10
1285	13
1286	12
1287	9
1288	10
1289	11
1290	14
1291	10
1292	11
1293	7
1294	9
1295	11
1296	16
1297	7
1298	6
1299	10
1300	11
1301	9
1302	16
1303	13
1304	10
1305	13
1306	12
1307	12
1308	17
1309	12
1310	9
1311	9
1312	9
1313	10
1314	10
1315	5
1316	12
1317	17
1318	25
1319	7
1320	8
1321	10
1322	12
1323	18
1324	15
1325	12
1326	16
1327	11
1328	13
1329	14
1330	7
1331	16
1332	13
1333	14
1334	12
1335	9
1336	13
1337	9
1338	16
1339	17
1340	12
1341	15
1342	11
1343	12
1344	9
1345	16
1346	11
1347	14
1348	12
1349	10
1350	14
1351	7
1352	15
1353	13
1354	9
1355	9
1356	16
1357	13
1358	11
1359	5
1360	17
1361	20
1362	12
1363	10
1364	17
1365	16
1366	14
1367	14
1368	10
1369	18
1370	12
1371	10
1372	21
1373	18
1374	13
1375	14
1376	8
1377	14
1378	14
1379	15
1380	13
1381	10
1382	15
1383	23
1384	20
1385	15
1386	13
1387	19
1388	26
1389	17
1390	15
1391	11
1392	16
1393	16
1394	14
1395	15
1396	15
1397	5
1398	10
1399	13
1400	14
1401	27
1402	14
1403	18
1404	9
1405	13
1406	14
1407	13
1408	17
1409	17
1410	8
1411	20
1412	16
1413	12
1414	11
1415	12
1416	16
1417	10
1418	16
1419	14
1420	15
1421	10
1422	8
1423	12
1424	20
1425	12
1426	11
1427	16
1428	17
1429	12
1430	16
1431	12
1432	23
1433	14
1434	10
1435	11
1436	14
1437	8
1438	10
1439	14
1440	12
1441	12
1442	19
1443	12
1444	10
1445	15
1446	13
1447	19
1448	13
1449	15
1450	7
1451	12
1452	13
1453	4
1454	13
1455	15
1456	8
1457	17
1458	15
1459	16
1460	12
1461	17
1462	9
1463	15
1464	14
1465	7
1466	9
1467	15
1468	12
1469	10
1470	6
1471	7
1472	10
1473	13
1474	8
1475	8
1476	19
1477	20
1478	9
1479	13
1480	12
1481	11
1482	10
1483	10
1484	8
1485	11
1486	11
1487	13
1488	9
1489	12
1490	11
1491	9
1492	14
1493	14
1494	10
1495	11
1496	10
1497	7
1498	10
1499	13
1500	12
1501	10
1502	5
1503	14
1504	10
1505	11
1506	10
1507	12
1508	5
1509	10
1510	9
1511	8
1512	11
1513	13
1514	12
1515	9
1516	10
1517	13
1518	16
1519	10
1520	9
1521	10
1522	9
1523	7
1524	7
1525	13
1526	5
1527	4
1528	14
1529	5
1530	10
1531	5
1532	9
1533	9
1534	14
1535	8
1536	13
1537	8
1538	3
1539	5
1540	13
1541	6
1542	4
1543	5
1544	6
1545	5
1546	7
1547	9
1548	9
1549	8
1550	8
1551	9
1552	8
1553	5
1554	8
1555	4
1556	7
1557	5
1558	2
1559	4
1560	7
1561	7
1562	5
1563	8
1564	5
1565	5
1566	7
1567	7
1568	3
1569	11
1570	12
1571	12
1572	6
1573	8
1574	7
1575	7
1576	9
1577	7
1578	7
1579	10
1580	6
1581	6
1582	8
1583	2
1584	5
1585	7
1586	7
1587	7
1588	4
1589	4
1590	3
1591	8
1592	2
1593	5
1594	6
1595	9
1596	5
1597	8
1598	9
1599	5
1600	8
1601	11
1602	3
1603	5
1604	4
1605	4
1606	7
1607	6
1608	10
1609	10
1610	7
1611	5
1612	6
1613	10
1614	9
1615	5
1616	5
1617	3
1618	6
1619	4
1620	4
1621	6
1622	10
1623	9
1624	2
1625	6
1626	4
1627	8
1628	1
1629	6
1630	5
1631	5
1632	8
1633	10
1634	8
1635	10
1636	5
1637	10
1638	7
1639	8
1640	9
1641	7
1642	9
1643	13
1644	14
1645	8
1646	13
1647	11
1648	4
1649	12
1650	12
1651	13
1652	6
1653	14
1654	10
1655	14
1656	8
1657	10
1658	15
1659	9
1660	10
1661	10
1662	11
1663	11
1664	12
1665	12
1666	15
1667	10
1668	20
1669	8
1670	9
1671	16
1672	11
1673	12
1674	12
1675	10
1676	17
1677	11
1678	8
1679	8
1680	15
1681	15
1682	20
1683	14
1684	18
1685	11
1686	9
1687	9
1688	13
1689	11
1690	12
1691	10
1692	7
1693	21
1694	15
1695	10
1696	12
1697	10
1698	11
1699	11
1700	20
1701	11
1702	6
1703	14
1704	14
1705	14
1706	11
1707	23
1708	11
1709	13
1710	19
1711	8
1712	9
1713	12
1714	10
1715	7
1716	9
1717	6
1718	19
1719	8
1720	12
1721	8
1722	14
1723	11
1724	12
1725	11
1726	9
1727	16
1728	12
1729	13
1730	10
1731	5
1732	9
1733	7
1734	11
1735	12
1736	9
1737	10
1738	9
1739	15
1740	8
1741	8
1742	6
1743	6
1744	5
1745	3
1746	5
1747	5
1748	4
1749	5
1750	4
1751	5
1752	5
1753	2
1754	4
1755	3
1756	9
1757	3
1758	5
1759	7
1760	6
1761	7
1762	6
1763	5
1764	14
1765	3
1766	4
1767	7
1768	4
1769	4
1770	7
1771	4
1772	6
1773	7
1774	3
1775	5
1776	6
1777	10
1778	1
1779	6
1780	4
1781	3
1782	3
1783	2
1784	3
1785	6
1786	3
1787	2
1788	6
1789	5
1790	3
1791	8
1792	4
1793	4
1794	3
1795	1
1796	8
1797	6
1798	1
1799	5
1800	4
1801	2
1802	4
1803	3
1804	3
1805	0
1806	2
1807	3
1808	2
1809	3
1810	4
1811	3
1812	1
1813	3
1814	2
1815	4
1816	3
1817	4
1818	1
1819	1
1820	3
1821	0
1822	4
1823	1
1824	3
1825	2
1826	0
1827	7
1828	3
1829	3
1830	1
1831	2
1832	1
1833	2
1834	4
1835	4
1836	0
1837	2
1838	5
1839	4
1840	3
1841	1
1842	1
1843	1
1844	0
1845	4
1846	3
1847	5
1848	0
1849	3
1850	3
1851	2
1852	2
1853	3
1854	3
1855	2
1856	2
1857	1
1858	4
1859	1
1860	3
1861	5
1862	4
1863	7
1864	1
1865	2
1866	1
1867	3
1868	1
1869	6
1870	2
1871	3
1872	3
1873	0
1874	2
1875	7
1876	2
1877	5
1878	4
1879	2
1880	2
1881	2
1882	3
1883	0
1884	5
1885	1
1886	2
1887	2
1888	3
1889	2
1890	2
1891	1
1892	2
1893	1
1894	3
1895	3
1896	4
1897	6
1898	0
1899	3
1900	3
1901	4
1902	5
1903	4
1904	2
1905	2
1906	3
1907	1
1908	2
1909	4
1910	7
1911	7
1912	1
1913	2
1914	3
1915	2
1916	0
1917	2
1918	3
1919	3
1920	2
1921	4
1922	1
1923	2
1924	1
1925	2
1926	2
1927	2
1928	1
1929	4
1930	1
1931	4
1932	2
1933	3
1934	6
1935	6
1936	6
1937	3
1938	4
1939	4
1940	2
1941	1
1942	4
1943	5
1944	5
1945	0
1946	1
1947	2
1948	1
1949	2
1950	1
1951	0
1952	7
1953	0
1954	5
1955	4
1956	0
1957	1
1958	1
1959	1
1960	2
1961	3
1962	4
1963	1
1964	2
1965	1
1966	4
1967	1
1968	1
1969	2
1970	1
1971	4
1972	2
1973	3
1974	1
1975	1
1976	1
1977	3
1978	2
1979	1
1980	1
1981	2
1982	6
1983	3
1984	2
1985	1
1986	3
1987	5
1988	4
1989	3
1990	3
1991	6
1992	1
1993	2
1994	2
1995	2
1996	1
1997	3
1998	0
1999	0
2000	1
2001	3
2002	2
2003	3
2004	0
2005	2
2006	2
2007	1
2008	3
2009	0
2010	7
2011	2
2012	2
2013	3
2014	1
2015	0
2016	1
2017	2
2018	2
2019	1
2020	5
2021	5
2022	2
2023	2
2024	3
2025	1
2026	4
2027	2
2028	1
2029	4
2030	3
2031	3
2032	1
2033	2
2034	1
2035	2
2036	4
2037	0
2038	1
2039	2
2040	6
2041	4
2042	0
2043	4
2044	2
2045	1
2046	2
2047	2
